S1_D1_HbO,S1_D1_HbR,S1_D2_HbO,S1_D2_HbR,S1_D20_HbO,S1_D20_HbR,S2_D2_HbO,S2_D2_HbR,S2_D3_HbO,S2_D3_HbR,S2_D21_HbO,S2_D21_HbR,S3_D3_HbO,S3_D3_HbR,S3_D4_HbO,S3_D4_HbR,S3_D22_HbO,S3_D22_HbR,S4_D5_HbO,S4_D5_HbR,S4_D6_HbO,S4_D6_HbR,S4_D7_HbO,S4_D7_HbR,S4_D17_HbO,S4_D17_HbR,S4_D8_HbO,S4_D8_HbR,S4_D23_HbO,S4_D23_HbR,S5_D7_HbO,S5_D7_HbR,S5_D10_HbO,S5_D10_HbR,S5_D8_HbO,S5_D8_HbR,S5_D9_HbO,S5_D9_HbR,S5_D24_HbO,S5_D24_HbR,S6_D10_HbO,S6_D10_HbR,S6_D11_HbO,S6_D11_HbR,S6_D12_HbO,S6_D12_HbR,S6_D9_HbO,S6_D9_HbR,S6_D25_HbO,S6_D25_HbR,S7_D11_HbO,S7_D11_HbR,S7_D12_HbO,S7_D12_HbR,S7_D13_HbO,S7_D13_HbR,S7_D14_HbO,S7_D14_HbR,S7_D18_HbO,S7_D18_HbR,S7_D26_HbO,S7_D26_HbR,S8_D15_HbO,S8_D15_HbR,S8_D16_HbO,S8_D16_HbR,S8_D19_HbO,S8_D19_HbR,S8_D9_HbO,S8_D9_HbR,S8_D27_HbO,S8_D27_HbR
-5.10972350228859e-06,-1.25930972527732e-06,-2.29584341537152e-06,-8.17583130858488e-07,1.81176901169864e-06,-1.91859776901851e-06,-1.52967915723933e-05,5.74132163975132e-06,-1.01926913887825e-05,2.45275008317361e-06,-3.24701735684969e-06,2.31802364090257e-06,-3.12079684147014e-06,2.40241842157608e-07,2.5864716610755e-06,8.6539469901355e-07,-5.06213970676289e-06,-4.21646887322431e-08,-2.6208489786177e-06,-1.42904094654987e-06,-1.05035271140509e-06,4.83460504548175e-07,-2.84832714665145e-06,2.21337494303801e-06,-6.0259257050107e-06,6.32318867031127e-07,-3.3644737197945e-06,3.38528320185956e-06,6.0121735237936e-06,-7.26310901124655e-06,-5.80116935557465e-07,1.30634707000965e-06,-4.15863324502252e-06,-3.0364712250919e-07,-2.35907061623094e-06,6.50629795793356e-06,-2.06948533745186e-06,6.7989233204549e-07,-8.46369693187073e-06,1.08543072698474e-06,1.6598935133326e-06,-1.30155898247944e-07,-5.69242899714069e-07,-1.74812543332211e-06,-1.66002036703716e-05,1.35914161886766e-05,-7.0470434482385e-08,-1.39943257685584e-06,1.63205625829799e-05,-1.499470436991e-05,4.01375347782182e-06,-1.38192697513598e-06,-4.86545049386112e-06,-5.69460575599398e-06,8.81151800571162e-06,-1.11699310283253e-05,-2.3722320406114e-06,9.83555117143282e-07,1.69625362704226e-06,-1.94298029571656e-06,-1.98974865302963e-05,6.95478879592185e-06,-7.90311056885625e-07,1.18795557512569e-07,-1.89408847386518e-07,3.52883959629178e-07,-3.76970673033371e-08,1.5658676117227e-07,-4.99275140770333e-06,-5.84165895906276e-07,-8.32755588849836e-06,2.22213203087477e-06
-5.11088740238102e-06,-1.25776879197072e-06,-2.30076547831393e-06,-8.08970276489809e-07,1.91569337700425e-06,-1.94827987778431e-06,-1.52274276132024e-05,5.70116788605014e-06,-1.01871432450677e-05,2.48770936307637e-06,-3.26005084733173e-06,2.33888653648936e-06,-3.18936503169887e-06,2.39970680821739e-07,2.59332015256759e-06,8.60199393585795e-07,-4.97925137122915e-06,-8.73294265325159e-09,-2.54884088607474e-06,-1.40090057404573e-06,-1.06901727270601e-06,4.77822907634843e-07,-2.75502432551243e-06,2.2073805193413e-06,-6.06809960639381e-06,6.18970217132954e-07,-3.60006268886247e-06,3.69304882238902e-06,6.03807353064771e-06,-7.18593650033126e-06,-6.51854781132345e-07,1.34553876838706e-06,-4.17118269530217e-06,-3.008557102142e-07,-2.15878409442678e-06,6.44536395899688e-06,-2.14236994650569e-06,7.367753881855e-07,-8.46130435199125e-06,1.10414099982319e-06,1.66627548336209e-06,-9.29908598780361e-08,-4.41459739017197e-07,-1.75712773108616e-06,-1.61791042767709e-05,1.33126471724442e-05,-3.82882655142839e-08,-1.38299834619597e-06,1.66749005083698e-05,-1.50623479877538e-05,4.08773845105978e-06,-1.35696998309122e-06,-4.72308130697161e-06,-5.54026140075464e-06,8.67711964764702e-06,-1.09047697976917e-05,-2.44620886277761e-06,9.30685616300358e-07,1.75244756677995e-06,-2.01159987303153e-06,-1.97144263274664e-05,7.25237431856186e-06,-8.25660610276914e-07,9.90766988387642e-08,-1.97086271726823e-07,3.57819379467117e-07,-7.03247943954445e-08,1.62080282720617e-07,-4.93017190614248e-06,-5.52033124169553e-07,-8.33638461696737e-06,2.27042306885113e-06
-5.10726711565508e-06,-1.25435306963925e-06,-2.30276794300735e-06,-7.99325598456059e-07,2.01834015641363e-06,-1.97623644473567e-06,-1.51311620369433e-05,5.64880260021746e-06,-1.01663506609254e-05,2.52026223068209e-06,-3.27484944105738e-06,2.36024776766962e-06,-3.25593250884943e-06,2.39989021039849e-07,2.59536329837661e-06,8.53890968736501e-07,-4.89462712910199e-06,2.45945053520311e-08,-2.47055629918031e-06,-1.36821495816622e-06,-1.08811570140551e-06,4.71817046310154e-07,-2.66160060015442e-06,2.20209070756773e-06,-6.10157194925408e-06,6.03964656745318e-07,-3.83132825657128e-06,4.00024298150765e-06,6.07327163968059e-06,-7.10760756659952e-06,-7.16810268868352e-07,1.37835735396835e-06,-4.17596199844039e-06,-2.97803653138614e-07,-1.94695955392475e-06,6.36958035901102e-06,-2.21379299460695e-06,7.93775656766689e-07,-8.44685570116561e-06,1.12454028173637e-06,1.67234241542331e-06,-5.38965432910211e-08,-3.07575609653356e-07,-1.76696643159787e-06,-1.57496728597969e-05,1.30603117556381e-05,-6.29684294800333e-09,-1.36401012295323e-06,1.70269526572443e-05,-1.51314180456882e-05,4.15777777458477e-06,-1.32900818544116e-06,-4.56879353932943e-06,-5.37938893132572e-06,8.53368491896552e-06,-1.06241983672833e-05,-2.51688237882694e-06,8.76849667995676e-07,1.81363106400032e-06,-2.08157688743136e-06,-1.9519089460892e-05,7.55408450222198e-06,-8.58617948957328e-07,7.80536318134028e-08,-2.03655047466375e-07,3.61928120839934e-07,-1.01769871878207e-07,1.6684506289278e-07,-4.85703049912734e-06,-5.18688407049928e-07,-8.32904664724311e-06,2.31672719041923e-06
-5.09872401292294e-06,-1.24914713579769e-06,-2.30173017840216e-06,-7.88714388700199e-07,2.11936117953208e-06,-2.0021704513138e-06,-1.50084908886495e-05,5.58447488392015e-06,-1.01305437330767e-05,2.55047303058923e-06,-3.29117763951844e-06,2.3819997558015e-06,-3.32016753922803e-06,2.40276777686298e-07,2.59297697412324e-06,8.4647489702793e-07,-4.8081611655298e-06,5.77213090635359e-08,-2.38614598942541e-06,-1.33104998956717e-06,-1.10752738369765e-06,4.65467316948631e-07,-2.56826620646805e-06,2.19755350575579e-06,-6.12628517176488e-06,5.87241724254979e-07,-4.05772432644717e-06,4.30593139822029e-06,6.11769824895594e-06,-7.02815307365555e-06,-7.74817592728824e-07,1.4047771694546e-06,-4.17306000139663e-06,-2.94496879613084e-07,-1.72438625235094e-06,6.27931148065916e-06,-2.28347697319451e-06,8.50633166462637e-07,-8.42052964178481e-06,1.14657738445019e-06,1.67800418361918e-06,-1.29041615193721e-08,-1.6787122845497e-07,-1.77765559510014e-06,-1.53161127196963e-05,1.28381964231238e-05,2.53748343050508e-08,-1.34242652197678e-06,1.73753624355108e-05,-1.52013200185175e-05,4.2235135701413e-06,-1.29807026279887e-06,-4.40253255034429e-06,-5.21245898457532e-06,8.38113270788658e-06,-1.03285719863449e-05,-2.58388133954866e-06,8.22065051541168e-07,1.87960721764727e-06,-2.15264624282991e-06,-1.93114265584152e-05,7.85852956699926e-06,-8.89153331962736e-07,5.57628968476809e-08,-2.09089135604911e-07,3.65213998218959e-07,-1.31971778232394e-07,1.70874539500838e-07,-4.77364531260616e-06,-4.84255861135738e-07,-8.30588306596043e-06,2.36097397331404e-06
-5.08512456675076e-06,-1.24224044203357e-06,-2.29753735535986e-06,-7.77204762064382e-07,2.21837857510301e-06,-2.02578063748494e-06,-1.48600154507231e-05,5.50848952568188e-06,-1.00800005145143e-05,2.57841161110898e-06,-3.30876886178389e-06,2.40403202488801e-06,-3.38174654596384e-06,2.40814217643818e-07,2.5865541522573e-06,8.37961484088309e-07,-4.71972929216903e-06,9.05562077964601e-08,-2.29578822726406e-06,-1.28948969013232e-06,-1.12713624980804e-06,4.58796072623228e-07,-2.47521776854361e-06,2.19380232029888e-06,-6.14221106766583e-06,5.68749351290196e-07,-4.27873076092283e-06,4.6091937021831e-06,6.1712295879867e-06,-6.94758466761138e-06,-8.25745265653127e-07,1.42479809353045e-06,-4.16259800137033e-06,-2.90944746744407e-07,-1.49190013745852e-06,6.17497971599137e-06,-2.35114613689443e-06,9.07086646385452e-07,-8.38255468039434e-06,1.17018861603644e-06,1.68317183556166e-06,2.99484794302116e-08,-2.26620884455632e-08,-1.78919463803139e-06,-1.48825455220747e-05,1.2649801118933e-05,5.65956694735569e-08,-1.31821302095835e-06,1.77187414042969e-05,-1.5271409738276e-05,4.28460460605108e-06,-1.26419493702549e-06,-4.22428241913034e-06,-5.03996074954641e-06,8.21940722462414e-06,-1.00182934123204e-05,-2.64685008816323e-06,7.663590746787e-07,1.95014279553504e-06,-2.22452475684468e-06,-1.90913951867761e-05,8.16427738226426e-06,-9.17248134433662e-07,3.22480395731044e-08,-2.13374490017135e-07,3.67684472333344e-07,-1.60878473924209e-07,1.74165878769075e-07,-4.68038099845821e-06,-4.48863905884755e-07,-8.26731088600469e-06,2.40309830076203e-06
-5.06634082997604e-06,-1.2337268903525e-06,-2.29008079447972e-06,-7.64867327110492e-07,2.31498672500295e-06,-2.04676323074379e-06,-1.46864379047554e-05,5.42120494445394e-06,-1.00150440045526e-05,2.60415232976438e-06,-3.32732669544919e-06,2.42623161650307e-06,-3.44035527415286e-06,2.41581939597704e-07,2.57650313498184e-06,8.28365686483507e-07,-4.62919083598131e-06,1.23013268973199e-07,-2.19968790433389e-06,-1.24363579894737e-06,-1.14683118810923e-06,4.51823424862005e-07,-2.38263747830076e-06,2.1908565793719e-06,-6.14935056778619e-06,5.48444455037317e-07,-4.49385388681056e-06,4.9091273860988e-06,6.23368817112102e-06,-6.86589493158228e-06,-8.69496369748271e-07,1.43844541282294e-06,-4.14472877162073e-06,-2.87159988998037e-07,-1.25038088330575e-06,6.05706388060421e-06,-2.4165278933713e-06,9.6287498653737e-07,-8.3332074600841e-06,1.19529811090414e-06,1.68775812152584e-06,7.46169511702604e-08,1.27702737815184e-07,-1.80156824288049e-06,-1.44529862230002e-05,1.24983193088583e-05,8.72330577981546e-08,-1.29134220295691e-06,1.80556751791077e-05,-1.53409962082489e-05,4.34072823826056e-06,-1.22743109124256e-06,-4.03406617336581e-06,-4.86240000963245e-06,8.04847866699936e-06,-9.69381148528239e-06,-2.70544982866537e-06,7.09768515661985e-07,2.02496998665111e-06,-2.29691265537607e-06,-1.88589646011865e-05,8.46986633337615e-06,-9.42894106788127e-07,7.55925415992039e-09,-2.16508469729139e-07,3.6935049196504e-07,-1.88446153063716e-07,1.7671996558272e-07,-4.57764612061574e-06,-4.12644546983899e-07,-8.21381858514814e-06,2.44304033006093e-06
-5.04225099135251e-06,-1.22370439797351e-06,-2.27925833563366e-06,-7.51774847668654e-07,2.40875458761323e-06,-2.06481378423929e-06,-1.44885563530328e-05,5.3230307690826e-06,-9.93603890971744e-06,2.62777304039209e-06,-3.34652625022764e-06,2.44848353562915e-06,-3.49568994558333e-06,2.42560844374734e-07,2.56324568524627e-06,8.17706899982316e-07,-4.53639074288546e-06,1.55012085199674e-07,-2.09807549183213e-06,-1.19360725524418e-06,-1.16650640894841e-06,4.44567077390563e-07,-2.29069242780795e-06,2.18872245371167e-06,-6.14773339655522e-06,5.2629341167276e-07,-4.70262672883792e-06,5.20485142204615e-06,6.30484355898446e-06,-6.78305770065156e-06,-9.06008635960812e-07,1.44576958952373e-06,-4.11963540389078e-06,-2.83158634292399e-07,-1.0007487047006e-06,5.92609724406827e-06,-2.47935419464437e-06,1.0177387153172e-06,-8.27281080040256e-06,1.2218182724464e-06,1.69167800518052e-06,1.21050211551696e-07,2.82842018342729e-07,-1.81474638937826e-06,-1.40313192953152e-05,1.23866211184118e-05,1.17153511627817e-07,-1.2617939785477e-06,1.83847296171462e-05,-1.54093448400813e-05,4.3915822291466e-06,-1.1878378299661e-06,-3.83194586688162e-06,-4.68029708276372e-06,7.86834377409432e-06,-9.35561949402332e-06,-2.75935978490489e-06,6.52339454142712e-07,2.10378853589083e-06,-2.36949530297085e-06,-1.86141204677916e-05,8.77381850831538e-06,-9.66092636509879e-07,-1.82470246364103e-08,-2.18499157302936e-07,3.70226304261643e-07,-2.14638960147968e-07,1.78541365703147e-07,-4.46589026867781e-06,-3.75732644837577e-07,-8.14596125473723e-06,2.4807454674601e-06
-5.01273999038132e-06,-1.21227445356922e-06,-2.26497472120148e-06,-7.3800189613684e-07,2.49922840334803e-06,-2.07962910999346e-06,-1.42672592150607e-05,5.21442506989112e-06,-9.84338820206239e-06,2.64935408085159e-06,-3.36601557710034e-06,2.4706712267687e-06,-3.54745840292743e-06,2.43732100979629e-07,2.54721507083139e-06,8.06008719396272e-07,-4.44116183835262e-06,1.86477929218091e-07,-1.99120583815988e-06,-1.13953958236252e-06,-1.18606174824439e-06,4.37042193468501e-07,-2.19953408608757e-06,2.1873936672886e-06,-6.1374176082057e-06,5.02272424691354e-07,-4.90460900874294e-06,5.49550953945113e-06,6.384413434352e-06,-6.69902854653026e-06,-9.35254381198296e-07,1.44684594389802e-06,-4.08752997285791e-06,-2.78959890315034e-07,-7.43960901175257e-07,5.78266524000726e-06,-2.53936291753889e-06,1.07142148140187e-06,-8.20173147975591e-06,1.24965031677696e-06,1.69484915777468e-06,1.69190652354593e-07,4.42343999205322e-07,-1.82868450601916e-06,-1.36212761600783e-05,1.23172393181241e-05,1.46223318738796e-07,-1.22955578764648e-06,1.87044572815691e-05,-1.54756810974686e-05,4.43688644254709e-06,-1.14548447607372e-06,-3.61802251294709e-06,-4.49418466802827e-06,7.67902627756124e-06,-9.00425334670729e-06,-2.80827825387931e-06,5.94126996634214e-07,2.1862682795079e-06,-2.4419452296193e-06,-1.83568694475541e-05,9.07465300349553e-06,-9.86854009973533e-07,-4.51085789078811e-08,-2.1936458868241e-07,3.70329237067847e-07,-2.3942867439113e-07,1.79638261136632e-07,-4.3456009258498e-06,-3.38265171228156e-07,-8.06435540359666e-06,2.51616435255158e-06
-4.97770018597341e-06,-1.1995416677957e-06,-2.247141991843e-06,-7.23624499810783e-07,2.58593476930866e-06,-2.0909092965159e-06,-1.40235190389415e-05,5.09589126107191e-06,-9.73752951884149e-06,2.66897728124098e-06,-3.38541715976737e-06,2.49267707497764e-06,-3.59538124839959e-06,2.45077112706033e-07,2.52885402296158e-06,7.93298670963204e-07,-4.34332722426961e-06,2.17341868081948e-07,-1.87935680779641e-06,-1.08158417652342e-06,-1.20540290902579e-06,4.29261298219534e-07,-2.10929791874404e-06,2.18685238313668e-06,-6.11848900727614e-06,4.76367796545722e-07,-5.09938692213729e-06,5.78027313285508e-06,6.47206500009585e-06,-6.61374544006062e-06,-9.57240328547018e-07,1.44177427577659e-06,-4.04865203285411e-06,-2.74586003997015e-07,-4.81008054688052e-07,5.62740282474782e-06,-2.59629922136675e-06,1.12367152352828e-06,-8.12037776606554e-06,1.278684906484e-06,1.69719244033554e-06,2.18974188196955e-07,6.05768255107588e-07,-1.84332374272412e-06,-1.32264137334499e-05,1.22923579015745e-05,1.74309230929264e-07,-1.19462277950703e-06,1.90134042012398e-05,-1.55391945428858e-05,4.47638442022867e-06,-1.10045049827273e-06,-3.39243587735091e-06,-4.30460560966826e-06,7.4805772661346e-06,-8.64028956096959e-06,-2.85192356562971e-06,5.35194904948496e-07,2.27205206236725e-06,-2.51392447809229e-06,-1.80872435506589e-05,9.37089915215008e-06,-1.00519667769253e-06,-7.29579116640147e-08,-2.19131904404168e-07,3.69679457709308e-07,-2.62794366055972e-07,1.80022359993425e-07,-4.21730012450402e-06,-3.00380458121203e-07,-7.96967347042399e-06,2.54925285459909e-06
-4.93703208333399e-06,-1.18561332071763e-06,-2.22567989946269e-06,-7.08719781963173e-07,2.66838404811473e-06,-2.09835980086919e-06,-1.37583857879302e-05,4.96797469525156e-06,-9.61893146211773e-06,2.68672501330731e-06,-3.40432952062685e-06,2.51438292309521e-06,-3.63919298239349e-06,2.46577486384822e-07,2.5086126049983e-06,7.79607918422685e-07,-4.24270281315882e-06,2.47540836894783e-07,-1.76282776485037e-06,-1.0199075050039e-06,-1.22444164474261e-06,4.21234216616967e-07,-2.02010315350277e-06,2.18707014800196e-06,-6.09106046553368e-06,4.48576112079682e-07,-5.28657269267866e-06,6.05834376147891e-06,6.56741670229485e-06,-6.52712959592957e-06,-9.72007322603295e-07,1.4306784397886e-06,-4.00326696152273e-06,-2.70062096512765e-07,-2.1290981096146e-07,5.46099143941723e-06,-2.64991687288322e-06,1.17424311145013e-06,-8.02919671185454e-06,1.30880286410473e-06,1.69863237788992e-06,2.70330388210709e-07,7.72647748501074e-07,-1.85859136687196e-06,-1.28500940255059e-05,1.23138030127666e-05,2.01279179598716e-07,-1.15699796915069e-06,1.93101169537217e-05,-1.55990432998539e-05,4.50984484501077e-06,-1.05282536359044e-06,-3.15536413491558e-06,-4.1121105953356e-06,7.27307547958463e-06,-8.26434309094573e-06,-2.89003496169761e-06,4.75615136671043e-07,2.36075897151597e-06,-2.58508724067089e-06,-1.78053042073541e-05,9.66110949874836e-06,-1.0211465268402e-06,-1.01722795227226e-07,-2.17836435012936e-07,3.68299712899073e-07,-2.84722029172271e-07,1.79708781879241e-07,-4.08154092707363e-06,-2.62217443656047e-07,-7.8626381024535e-06,2.57997208154413e-06
-4.89064512024382e-06,-1.17059890856131e-06,-2.20051634046158e-06,-6.93365599639801e-07,2.74607406801995e-06,-2.10169359924261e-06,-1.34729796678951e-05,4.83125897474351e-06,-9.48808985656278e-06,2.70267930185278e-06,-3.42232898578749e-06,2.53567059620073e-06,-3.67864313896566e-06,2.48215006626407e-07,2.48694599508233e-06,7.649709443618e-07,-4.13909998875423e-06,2.77017673035594e-07,-1.6419379092859e-06,-9.5469022046653e-07,-1.24309588817903e-06,4.12968046754473e-07,-1.93205269547032e-06,2.1880088758154e-06,-6.05527114744915e-06,4.18904340429527e-07,-5.46580393116481e-06,6.3289552594858e-06,6.67004027518037e-06,-6.43908650081057e-06,-9.79629941719913e-07,1.41370587716033e-06,-3.95166416668649e-06,-2.65415975374947e-07,5.92897938589127e-08,5.28415553806732e-06,-2.69997952982879e-06,1.2228979431483e-06,-7.92867123298192e-06,1.33987595489758e-06,1.69909762646911e-06,3.23182649757099e-07,9.42491089936249e-07,-1.8744012851177e-06,-1.24954647484793e-05,1.23830359877081e-05,2.27003014825226e-07,-1.11669236938524e-06,1.95931500790675e-05,-1.56543589476816e-05,4.53706288912937e-06,-1.00270831389287e-06,-2.90702339547699e-06,-3.91725581216335e-06,7.05662754514408e-06,-7.87706501113207e-06,-2.92237339584117e-06,4.1546730599993e-07,2.45198779576321e-06,-2.65508271208109e-06,-1.75111460286051e-05,9.94387235167139e-06,-1.034736160709e-06,-1.31326862037421e-07,-2.15520733465805e-07,3.66215053918804e-07,-3.05204192187204e-07,1.78715919251495e-07,-3.93890376901818e-06,-2.23914921850291e-07,-7.74401625453448e-06,2.60828840011992e-06
-4.83845849916973e-06,-1.154609692209e-06,-2.17158780322983e-06,-6.77640180227133e-07,2.81849407665511e-06,-2.10063336971763e-06,-1.3168483553607e-05,4.68636200761958e-06,-9.34552400764233e-06,2.7169210165832e-06,-3.43897162509197e-06,2.55642242686314e-06,-3.71349740087804e-06,2.49971616388609e-07,2.46431220365747e-06,7.49425208760928e-07,-4.03232834628523e-06,3.05721113044294e-07,-1.51702447908058e-06,-8.86126200512156e-07,-1.26128982515592e-06,4.04467167299725e-07,-1.84523319341843e-06,2.18962184916874e-06,-6.01128564197129e-06,3.87369853375033e-07,-5.63674287600384e-06,6.59137555888159e-06,6.77946310008592e-06,-6.34950712350732e-06,-9.80215996177438e-07,1.39102709778015e-06,-3.89415517055615e-06,-2.60677925038557e-07,3.34527472732585e-07,5.09765865631969e-06,-2.74626197374023e-06,1.26940648542661e-06,-7.8193169861298e-06,1.37176772823197e-06,1.69852143014044e-06,3.77448411014607e-07,1.11478498865399e-06,-1.89065469222911e-06,-1.21654409270435e-05,1.25011482920382e-05,2.51353264086007e-07,-1.07372509860093e-06,1.98610737974786e-05,-1.57042518526848e-05,4.55786143866142e-06,-9.50208070134432e-07,-2.64766710882984e-06,-3.72060058763535e-06,6.83136816474014e-06,-7.47914007710895e-06,-2.9487222521724e-06,3.54838072578585e-07,2.54532062920749e-06,-2.7235580752891e-06,-1.72049002309364e-05,1.02178237306248e-05,-1.04600418104545e-06,-1.61690233617611e-07,-2.12233565720694e-07,3.63452550595057e-07,-3.24239503914395e-07,1.77065274590287e-07,-3.78999269507551e-06,-1.85610804028092e-07,-7.61461315304113e-06,2.63417346355414e-06
-4.78040203751226e-06,-1.1377582499259e-06,-2.13883981367158e-06,-6.61621759004124e-07,2.8851289189186e-06,-2.09491367331289e-06,-1.28461350647788e-05,4.53393184049017e-06,-9.19177298453509e-06,2.72952915793508e-06,-3.45379535206842e-06,2.57652177769291e-06,-3.7435386664121e-06,2.51829405214844e-07,2.44116975887117e-06,7.33010786678787e-07,-3.92219843794066e-06,3.33605754648316e-07,-1.38844083508161e-06,-8.14421521988642e-07,-1.27895390777952e-06,3.95733278045902e-07,-1.75971525361385e-06,2.19185472149815e-06,-5.95929297996382e-06,3.54000346705351e-07,-5.7990756070316e-06,6.84490834884648e-06,6.89517086826267e-06,-6.25826930195709e-06,-9.73905876453725e-07,1.36283509842508e-06,-3.83107158168745e-06,-2.55880478054973e-07,6.11726297559823e-07,4.90229900339813e-06,-2.78855128213356e-06,1.31354924702071e-06,-7.70167905462143e-06,1.40433440728765e-06,1.6968420628532e-06,4.33039397787498e-07,1.28899687841526e-06,-1.90724084596745e-06,-1.18626875814556e-05,1.26688582047003e-05,2.74205905706333e-07,-1.02812346497949e-06,2.01124819715441e-05,-1.57478169154579e-05,4.57209217898682e-06,-8.95442470652827e-07,-2.37758536059778e-06,-3.52270504136858e-06,6.59746025388276e-06,-7.07128418122712e-06,-2.9688879734387e-06,2.93820465837622e-07,2.64032656581825e-06,-2.79016155867291e-06,-1.68867376890797e-05,1.0481658508965e-05,-1.05499447000384e-06,-1.92730178297923e-07,-2.08028869709793e-07,3.60040997493865e-07,-3.4183228925997e-07,1.74781273022418e-07,-3.63543151429462e-06,-1.47441400590916e-07,-7.47526615997606e-06,2.65760424230986e-06
-4.71641700717047e-06,-1.12015803676736e-06,-2.10222735971049e-06,-6.45388219967853e-07,2.9454634036221e-06,-2.08428309821364e-06,-1.25072183510439e-05,4.37464230344919e-06,-9.02739194910547e-06,2.74058024543662e-06,-3.46632216625558e-06,2.59585355897554e-06,-3.76856804029967e-06,2.53770606419263e-07,2.41797538934482e-06,7.15769986714426e-07,-3.80852445522333e-06,3.60631984982751e-07,-1.25655444753022e-06,-7.39793377863227e-07,-1.29602480315542e-06,3.86765473077742e-07,-1.67555379213718e-06,2.19464650686786e-06,-5.89950551077313e-06,3.18833645268331e-07,-5.95251128483154e-06,7.08889462614282e-06,7.01661053489597e-06,-6.1652393003093e-06,-9.60871690376808e-07,1.32934469690971e-06,-3.76276296381418e-06,-2.51058169460877e-07,8.89801767592498e-07,4.69890458767468e-06,-2.82664793270503e-06,1.35511797560883e-06,-7.57632845182105e-06,1.43742581748857e-06,1.69400324716766e-06,4.89861899015869e-07,1.46457769825891e-06,-1.9240379639224e-06,-1.15896036568707e-05,1.28865092189183e-05,2.95441149602663e-07,-9.79923028014433e-07,2.03460002279356e-05,-1.5784139691711e-05,4.57963652012784e-06,-8.38538051704522e-07,-2.09710407186983e-06,-3.32412777067181e-06,6.35509501906203e-06,-6.65424171984872e-06,-2.98270059625246e-06,2.32513152865427e-07,2.736565459423e-06,-2.85454553875253e-06,-1.65568715802014e-05,1.07341405608634e-05,-1.0617554737741e-06,-2.24361783367349e-07,-2.02964693468229e-07,3.56010616218026e-07,-3.579920694521e-07,1.71891050345922e-07,-3.47585989768287e-06,-1.0954073129208e-07,-7.32683857056627e-06,2.67856305323657e-06
-4.64645694754538e-06,-1.10192295262801e-06,-2.06171528269987e-06,-6.29016741849182e-07,2.99898679756477e-06,-2.06850633534197e-06,-1.21530556692715e-05,4.20918850609957e-06,-8.85294856644268e-06,2.75014781392814e-06,-3.47606055063896e-06,2.61430473874317e-06,-3.78840573078754e-06,2.55777604145104e-07,2.3951817175445e-06,6.97746951709772e-07,-3.69112681720002e-06,3.86765873912504e-07,-1.12174480525293e-06,-6.62468942728961e-07,-1.31244528064346e-06,3.77560346595003e-07,-1.59278851260553e-06,2.19793054551212e-06,-5.8321576225491e-06,2.8191737553493e-07,-6.09678140474976e-06,7.32271408950162e-06,7.14319354680837e-06,-6.07027353404391e-06,-9.4131612256435e-07,1.29079175827214e-06,-3.68959461364956e-06,-2.46247276991336e-07,1.16766826997497e-06,4.48832795250228e-06,-2.86036683776959e-06,1.39391677250055e-06,-7.44385845804696e-06,1.47088634465781e-06,1.68995453830239e-06,5.47817064843188e-07,1.64096480127928e-06,-1.94091423404336e-06,-1.1348307425674e-05,1.31540702259964e-05,3.1494421437001e-07,-9.29167638987137e-07,2.05602941368597e-05,-1.58123028341056e-05,4.580406335368e-06,-7.79629581376203e-07,-1.80658411400538e-06,-3.12542358875599e-06,6.10449194385127e-06,-6.22878288938173e-06,-2.99001419563382e-06,1.71019659318043e-07,2.83359172687921e-06,-2.91636967911115e-06,-1.62155595959709e-05,1.09741117567388e-05,-1.06633949584974e-06,-2.56498626344842e-07,-1.9710212521358e-07,3.51392758183688e-07,-3.72733044754005e-07,1.68424217116884e-07,-3.31192944521674e-06,-7.20398712557127e-08,-7.17021338350179e-06,2.69703758337424e-06
-4.57048845167976e-06,-1.08316691980541e-06,-2.01727863436195e-06,-6.12583450488568e-07,3.04519735804104e-06,-2.04736615816925e-06,-1.17849988617813e-05,4.03828222749993e-06,-8.66901954954095e-06,2.75830202082507e-06,-3.48250807002589e-06,2.63176484172741e-06,-3.80289184608055e-06,2.57832950822843e-07,2.37323496222004e-06,6.78987243726194e-07,-3.56983467107154e-06,4.1197903051906e-07,-9.84401269709558e-07,-5.82684193059231e-07,-1.32816404823794e-06,3.68112131329373e-07,-1.51144449485374e-06,2.2016354335005e-06,-5.75750430862953e-06,2.43308498416011e-07,-6.23163901321695e-06,7.54578626902207e-06,7.27429931939216e-06,-5.97322046715136e-06,-9.15470966689418e-07,1.24743228427335e-06,-3.61194526432586e-06,-2.41485548841765e-07,1.44424579523353e-06,4.27144067605941e-06,-2.88953831105023e-06,1.42976312048195e-06,-7.30488081562948e-06,1.50455591437564e-06,1.68465166009357e-06,6.06801221327146e-07,1.81758495990193e-06,-1.95772892606731e-06,-1.11406235583382e-05,1.34711375461446e-05,3.32606087597045e-07,-8.75909462716222e-07,2.0754077344862e-05,-1.58313927990186e-05,4.57434448875137e-06,-7.18859560461362e-07,-1.50642034507425e-06,-2.92714132956296e-06,5.84589864729844e-06,-5.79570092900543e-06,-2.99070724338733e-06,1.09447554977604e-07,2.93095814630414e-06,-2.97530407308846e-06,-1.58631057087078e-05,1.12004996931018e-05,-1.06880200998076e-06,-2.89053433981867e-07,-1.90504230125198e-07,3.46219611953915e-07,-3.86073542206141e-07,1.64412600402112e-07,-3.14429975279582e-06,-3.506633893805e-08,-7.00628709125388e-06,2.71302090625555e-06
-4.48849193043919e-06,-1.0640034695924e-06,-1.96890300346596e-06,-5.96163078138499e-07,3.08360681046102e-06,-2.02066528437176e-06,-1.14044208539378e-05,3.86264724767142e-06,-8.47618739312227e-06,2.7651093644153e-06,-3.48515421616011e-06,2.6481264329882e-06,-3.81188708840792e-06,2.59919395118128e-07,2.3525726476861e-06,6.5953741685831e-07,-3.44448831860133e-06,4.36248422173853e-07,-8.44920895365964e-07,-5.00682689305246e-07,-1.34313555097355e-06,3.58412868756561e-07,-1.43153288009668e-06,2.20568590834222e-06,-5.67581959448511e-06,2.03072704135741e-07,-6.35685783287554e-06,7.75757128509729e-06,7.40927893189168e-06,-5.87392268070633e-06,-8.83595306737618e-07,1.19954133059158e-06,-3.53020473314882e-06,-2.36811919531371e-07,1.71846673910064e-06,4.04912781716454e-06,-2.91400896592351e-06,1.46248881995248e-06,-7.16002181100904e-06,1.53827098514348e-06,1.6780567826174e-06,6.66706197499993e-07,1.99385743703999e-06,-1.97433358789449e-06,-1.09680720222749e-05,1.3836938844429e-05,3.4832425753978e-07,-8.20208981940104e-07,2.09261195655459e-05,-1.58405067531929e-05,4.56142514005584e-06,-6.56377702353416e-07,-1.19704056643322e-06,-2.72982172779523e-06,5.57959058880518e-06,-5.35580932375754e-06,-2.98468288331019e-06,4.79076161432101e-08,3.02821956910419e-06,-3.03103231505099e-06,-1.54998614755734e-05,1.14123240895795e-05,-1.06920099975277e-06,-3.21938723546079e-07,-1.83235008196984e-07,3.40523917738591e-07,-3.98035434979978e-07,1.59889965929709e-07,-2.97363451010749e-06,1.25646940923047e-09,-6.83596354109161e-06,2.7265114899729e-06
-4.40046235136425e-06,-1.0445453364965e-06,-1.91658481361914e-06,-5.79828630158658e-07,3.11374470277136e-06,-1.98822810106055e-06,-1.10127072834051e-05,3.68301467367021e-06,-8.27503733366712e-06,2.77063250727758e-06,-3.48348350665257e-06,2.66328558193866e-06,-3.81527334131199e-06,2.62019919826746e-07,2.33362133124005e-06,6.39444583415498e-07,-3.3149415554945e-06,4.59556158113877e-07,-7.03706235302072e-07,-4.16714327182819e-07,-1.35731974109135e-06,3.48452609311786e-07,-1.35305163720723e-06,2.21000368887371e-06,-5.58739484468718e-06,1.61283678426189e-07,-6.47223127470484e-06,7.95757018308598e-06,7.54745900636496e-06,-5.77221909313599e-06,-8.45973347382737e-07,1.14741171555539e-06,-3.4447715303804e-06,-2.32266213383395e-07,1.98928264212205e-06,3.82228245569716e-06,-2.93364253462828e-06,1.49194082559064e-06,-7.00991827202329e-06,1.57186555046183e-06,1.67013873884299e-06,7.27419662864563e-07,2.16919709880507e-06,-1.99057331083637e-06,-1.08318590197624e-05,1.42503390374646e-05,3.62003408382243e-07,-7.62134982465619e-07,2.10752543487769e-05,-1.58387596014453e-05,4.54165383318185e-06,-5.92340397435172e-07,-8.7890438867675e-07,-2.53399537971347e-06,5.30587061449083e-06,-4.90993897149113e-06,-2.97186912324734e-06,-1.34870259197293e-08,3.12493645571323e-06,-3.08325440301912e-06,-1.51262268483999e-05,1.16087018285024e-05,-1.06759632619833e-06,-3.5506742490434e-07,-1.75358384761852e-07,3.34338689891348e-07,-4.08643542534045e-07,1.54891724577724e-07,-2.80059765612536e-06,3.6809796728029e-08,-6.66014791237443e-06,2.73751319651452e-06
-4.30640993483847e-06,-1.02490405866411e-06,-1.86033158654751e-06,-5.63651059967248e-07,3.13516260560944e-06,-1.94990223899587e-06,-1.06112483635921e-05,3.50011831764433e-06,-8.06615454487307e-06,2.77493019204055e-06,-3.47697879856622e-06,2.67714230336821e-06,-3.81295414020958e-06,2.64117788476551e-07,2.31679437690314e-06,6.18755980507953e-07,-3.18106387486571e-06,4.81889241459731e-07,-5.6116314779586e-07,-3.31034064744927e-07,-1.37068182465191e-06,3.38219639897872e-07,-1.27598639179228e-06,2.21450827249305e-06,-5.49253697384615e-06,1.18022259072487e-07,-6.57757135859733e-06,8.14532485542105e-06,7.68814573386944e-06,-5.66794728948861e-06,-8.02911914975087e-07,1.0913524974577e-06,-3.35605044184129e-06,-2.27888834650095e-07,2.2556707475709e-06,3.59180043184687e-06,-2.94832058860554e-06,1.51798197278908e-06,-6.85521350825751e-06,1.60517214907166e-06,1.66087318589196e-06,7.88825475426557e-07,2.34301755256493e-06,-2.00628805040612e-06,-1.0732870262368e-05,1.47098484153456e-05,3.73556075728348e-07,-7.01764512891512e-07,2.12003865770036e-05,-1.58252910516402e-05,4.51506738672005e-06,-5.26910158987166e-07,-5.52501987267814e-07,-2.34018079143378e-06,5.02506835934053e-06,-4.45893530743201e-06,-2.95221894091202e-06,-7.46217463481388e-08,3.22067816771451e-06,-3.13168939030381e-06,-1.47426504286206e-05,1.17888506360864e-05,-1.06404912139665e-06,-3.88353482466759e-07,-1.66937242494466e-07,3.27696947360521e-07,-4.17925022108176e-07,1.4945462806064e-07,-2.62584961246471e-06,7.14799941123567e-08,-6.47974084651898e-06,2.74603527124936e-06
-4.2063607816009e-06,-1.00518958374876e-06,-1.80016216105882e-06,-5.47698953824532e-07,3.14743815194724e-06,-1.9055599845883e-06,-1.02014310753881e-05,3.31469018397188e-06,-7.85012155748466e-06,2.77805723359506e-06,-3.46512476188862e-06,2.68960097367546e-06,-3.80485501408041e-06,2.66196598941799e-07,2.30248981147335e-06,5.97518544522582e-07,-3.04274247012614e-06,5.03239294662001e-07,-4.17698617466971e-07,-2.43900631142858e-07,-1.38319198628796e-06,3.27700735499203e-07,-1.20031129597601e-06,2.21911769234882e-06,-5.39156659465439e-06,7.33755167438268e-08,-6.67270759645347e-06,8.32041760978198e-06,7.83062901069161e-06,-5.56094590246149e-06,-7.54737669709834e-07,1.03168721963302e-06,-3.26445009543546e-06,-2.23720443826015e-07,2.51664026983289e-06,3.35857537066698e-06,-2.95794313824036e-06,1.54049158384966e-06,-6.69655322706548e-06,1.63802288712733e-06,1.65024272166964e-06,8.508040414896e-07,2.51473429956776e-06,-2.02131399274123e-06,-1.06716668591509e-05,1.52136331978665e-05,3.82903261389359e-07,-6.39182809243008e-07,2.13004996812186e-05,-1.57992726435925e-05,4.48173361001638e-06,-4.6025504224015e-07,-2.18352722540048e-07,-2.14888252430956e-06,4.73753953073984e-06,-4.00365537799198e-06,-2.92571029899341e-06,-1.35381296315001e-07,3.31502598243234e-06,-3.17607773720199e-06,-1.43496290859898e-05,1.19520914131876e-05,-1.05862120646223e-06,-4.21712434871155e-07,-1.58032502568899e-07,3.20631452146778e-07,-4.25908762548049e-07,1.4361645884608e-07,-2.4500436094174e-06,1.05158943725062e-07,-6.29563275992412e-06,2.75209232127884e-06
-4.10035740889992e-06,-9.85509880265694e-07,-1.73610686030145e-06,-5.32038227759309e-07,3.15017890839268e-06,-1.85509952126877e-06,-9.78463176461506e-06,3.12745611378071e-06,-7.62751588900296e-06,2.78006457410187e-06,-3.4474114808207e-06,2.7005707217398e-06,-3.79092369054215e-06,2.68240342219752e-07,2.29108829216558e-06,5.7577850041646e-07,-2.89988398934218e-06,5.23602263848143e-07,-2.73718604148388e-07,-1.55575223570198e-07,-1.39482509512044e-06,3.16881431921433e-07,-1.12598991600541e-06,2.22374923307786e-06,-5.2848161467979e-06,2.74358077564427e-08,-6.75748590228947e-06,8.48247045817341e-06,7.97418664785408e-06,-5.4510569855167e-06,-7.0179408505459e-07,9.6875194263924e-07,-3.17038052282438e-06,-2.19801621249838e-07,2.77123828437187e-06,3.12349406336818e-06,-2.96242909696051e-06,1.5593659489672e-06,-6.53458146682067e-06,1.67025047821169e-06,1.63823696788581e-06,9.13232688514751e-07,2.68376789123441e-06,-2.03548495882442e-06,-1.06484839346426e-05,1.57595285472646e-05,3.89975005883484e-07,-5.74483173885167e-07,2.1374662605606e-05,-1.57599146844866e-05,4.44175086421637e-06,-3.92548029254953e-07,1.2299639903222e-07,-1.96058944816842e-06,4.44366509881235e-06,-3.5449648617716e-06,-2.89234606802657e-06,-1.95650676436376e-07,3.40757581907645e-06,-3.21618334287292e-06,-1.39477068810381e-05,1.20978492467269e-05,-1.05137453473172e-06,-4.55061969301621e-07,-1.48702262848412e-07,3.13174456141778e-07,-4.32624790952787e-07,1.37415718649768e-07,-2.27382211731518e-06,1.37744437898928e-07,-6.1086983705191e-06,2.7557042820638e-06
-3.98845918560162e-06,-9.65970555104242e-07,-1.66820760701852e-06,-5.16731839422447e-07,3.14302604863866e-06,-1.79844599356286e-06,-9.36220919647956e-06,2.93913162047681e-06,-7.39890787724617e-06,2.78099939100917e-06,-3.42333818337889e-06,2.70996579402714e-06,-3.77113016547601e-06,2.70233464482373e-07,2.28295119922817e-06,5.53580971769279e-07,-2.752416029039e-06,5.4297810784809e-07,-1.29625933607525e-07,-6.63202008906519e-08,-1.40556039960994e-06,3.05746317102853e-07,-1.0529761195724e-06,2.22832010005297e-06,-5.17262805396274e-06,-1.97001512971682e-08,-6.83176758747803e-06,8.63114420133629e-06,8.11808861714446e-06,-5.33812832572731e-06,-6.4443826098957e-07,9.02893095437997e-07,-3.0742507330191e-06,-2.16172520970055e-07,3.01855520189575e-06,2.8874322295377e-06,-2.96171660552627e-06,1.5745186829361e-06,-6.36993659821761e-06,1.70168930503074e-06,1.62485262533061e-06,9.75986051108377e-07,2.84954707354211e-06,-2.04863383948874e-06,-1.06632319064422e-05,1.63450538180191e-05,3.9471091386762e-07,-5.07766800531008e-07,2.14220365389382e-05,-1.57064730411662e-05,4.39524747649445e-06,-3.23966379571838e-07,4.70972433465059e-07,-1.77577311226724e-06,4.14385040629344e-06,-3.08373504587771e-06,-2.85215386119901e-06,-2.5531600420909e-07,3.49794067703559e-06,-3.25179525932722e-06,-1.35374733071731e-05,1.22256531884379e-05,-1.04237066327608e-06,-4.8832244639071e-07,-1.39001001351009e-07,3.05357456999216e-07,-4.38103701292265e-07,1.30891318942266e-07,-2.09781339725695e-06,1.69140516455176e-07,-5.91979147258241e-06,2.75689637229493e-06
-3.87074266987717e-06,-9.46674478307441e-07,-1.59651799238501e-06,-5.01839517887671e-07,3.12565777927704e-06,-1.7355523881505e-06,-8.93549809612372e-06,2.75041793734831e-06,-7.16485872072494e-06,2.78090525050237e-06,-3.39241711137003e-06,2.71770589316827e-06,-3.74546664569332e-06,2.72160930544014e-07,2.2784188541288e-06,5.30969616768057e-07,-2.60028838336897e-06,5.61370477850305e-07,1.41817540349341e-08,2.36022152999974e-08,-1.41538122277545e-06,2.94279338176222e-07,-9.81214953170011e-07,2.23274803653468e-06,-5.05535294836017e-06,-6.79321468213828e-08,-6.89542849181219e-06,8.76613738748527e-06,8.26160129504113e-06,-5.22201565830521e-06,-5.83037640433228e-07,8.34465182004179e-07,-2.97646632200239e-06,-2.1287251912578e-07,3.25772985494518e-06,2.65125061599748e-06,-2.95576322184043e-06,1.58588096199738e-06,-6.20324744977823e-06,1.73217650144909e-06,1.61009349886817e-06,1.03893646802551e-06,3.01151189851231e-06,-2.06059405421515e-06,-1.07155002606418e-05,1.69674297181338e-05,3.97060624305609e-07,-4.39142542394085e-07,2.14418813658218e-05,-1.56382557358043e-05,4.34238100144032e-06,-2.54690955640338e-07,8.24978371158252e-07,-1.59488624124132e-06,3.83852419283195e-06,-2.62083977586617e-06,-2.80518578741783e-06,-3.14265364104359e-07,3.58575279879977e-06,-3.28272911387947e-06,-1.31195609635222e-05,1.23351349586021e-05,-1.0316702570472e-06,-5.21417390189925e-07,-1.2897885269386e-07,2.97210964180032e-07,-4.42376112494505e-07,1.24082276589534e-07,-1.92262818857472e-06,1.99257764242726e-07,-5.72973999634578e-06,2.75569903652304e-06
-3.74730185737767e-06,-9.27721416519584e-07,-1.52110330393407e-06,-4.87417514594769e-07,3.0977924679849e-06,-1.66640022710441e-06,-8.5058031907323e-06,2.56199829198545e-06,-6.92591873051547e-06,2.7798222995366e-06,-3.35417752764644e-06,2.72371648897255e-06,-3.71394737407843e-06,2.74008287112906e-07,2.27780886285553e-06,5.07986294922321e-07,-2.44347406709909e-06,5.78786393563638e-07,1.57313980891402e-07,1.13931220235542e-07,-1.42427466721926e-06,2.82464120191103e-07,-9.10643507016923e-07,2.23695188567874e-06,-4.93334798822783e-06,-1.17157241745516e-07,-6.94835829890524e-06,8.88718523413711e-06,8.40399166510355e-06,-5.10258476110192e-06,-5.17966691202245e-07,7.63828376199421e-07,-2.87742714720498e-06,-2.09939861547972e-07,3.4879542670155e-06,2.41579133586815e-06,-2.94454598575639e-06,1.59340164565661e-06,-6.0351296113229e-06,1.76155304786502e-06,1.59397048295211e-06,1.10195438640264e-06,3.16911677870466e-06,-2.07120102504529e-06,-1.08045636627741e-05,1.76235970890883e-05,3.96984216325859e-07,-3.68726626065831e-07,2.14335617197079e-05,-1.5554629281942e-05,4.28333731447191e-06,-1.84905537022128e-07,1.18439514959236e-06,-1.41836135915215e-06,3.5281375179996e-06,-2.15715240443772e-06,-2.75151812542333e-06,-3.72389631174588e-07,3.67066558797649e-06,-3.30882829449559e-06,-1.26946428309412e-05,1.24260267858478e-05,-1.01933262863451e-06,-5.54273936922715e-07,-1.18680963393561e-07,2.88764277013742e-07,-4.45472161897023e-07,1.17027418094126e-07,-1.74885655262693e-06,2.28013570801435e-07,-5.53934138531378e-06,2.75214787384812e-06
-3.61824834179081e-06,-9.09207676651098e-07,-1.44204051248407e-06,-4.73518378546333e-07,3.05919144444508e-06,-1.59100006988484e-06,-8.07439375604788e-06,2.37453441997571e-06,-6.6826257921288e-06,2.77778748998484e-06,-3.30816982785033e-06,2.72792910048057e-06,-3.67660834199488e-06,2.75761724632899e-07,2.28141459214899e-06,4.84670768926559e-07,-2.28197011348784e-06,5.95235921282672e-07,2.99389316138554e-07,2.04408674523801e-07,-1.43223133226757e-06,2.70284290939514e-07,-8.41191767122792e-07,2.24085209753124e-06,-4.80697528151379e-06,-1.67270441698286e-07,-6.99046007406612e-06,8.99405859473339e-06,8.54453144299432e-06,-4.97971341760409e-06,-4.49603602693216e-07,6.9134602909847e-07,-2.77752509503504e-06,-2.07411315647184e-07,3.70847817259683e-06,2.18187434102874e-06,-2.92806136648227e-06,1.59704728665851e-06,-5.86618195704833e-06,1.78966486770027e-06,1.5765014975265e-06,1.16490876951594e-06,3.32183346031854e-06,-2.08029365323158e-06,-1.09293902516748e-05,1.83102370635088e-05,3.94452544163274e-07,-2.96642316874445e-07,2.13965524955579e-05,-1.54550246898701e-05,4.21832952340139e-06,-1.14796135844915e-07,1.54858377700542e-06,-1.24660954061e-06,3.21316256854245e-06,-1.69354276350142e-06,-2.69125091814031e-06,-4.29583259273669e-07,3.7523553272361e-06,-3.3299649686886e-06,-1.22634293310815e-05,1.24981586141301e-05,-1.00541531238601e-06,-5.86823238045193e-07,-1.08146929524666e-07,2.8004527709613e-07,-4.47421038722993e-07,1.09765096354918e-07,-1.57706489150696e-06,2.55332353525429e-07,-5.34935831660935e-06,2.74628354992978e-06
-3.4837113803649e-06,-8.91225761354229e-07,-1.35941821178447e-06,-4.60190758122238e-07,3.00966146954202e-06,-1.50939182238792e-06,-7.64249865746221e-06,2.18866332916637e-06,-6.43550402682948e-06,2.77483482881231e-06,-3.25396969522331e-06,2.73028154696759e-06,-3.63350688863705e-06,2.77408136936628e-07,2.28950379431354e-06,4.61060445266194e-07,-2.11579813055643e-06,6.10731858356225e-07,4.4003715541515e-07,2.94780311456512e-07,-1.43924503893142e-06,2.57723805928573e-07,-7.7278345068821e-07,2.24437118173301e-06,-4.67660042163418e-06,-2.18165245560774e-07,-7.0216500340753e-06,9.08656302118723e-06,8.68250109473673e-06,-4.85329323746413e-06,-3.78327036543182e-07,6.17382108621384e-07,-2.67714196415279e-06,-2.05321832929701e-07,3.91861331192917e-06,1.95029396240559e-06,-2.90632509600891e-06,1.5968020303806e-06,-5.69698341045901e-06,1.81636390682545e-06,1.55771136822107e-06,1.22766750589231e-06,3.46915389186273e-06,-2.08771578225196e-06,-1.10886519562116e-05,1.90237923925987e-05,3.89447498444218e-07,-2.2301954168331e-07,2.1330443707768e-05,-1.53389430672048e-05,4.14759669341919e-06,-4.45503208278203e-08,1.91688753867517e-06,-1.08001928569696e-06,2.89409134259539e-06,-1.2308741763159e-06,-2.62450748846957e-06,-4.85745020368393e-07,3.83052273784905e-06,-3.34604099544064e-06,-1.18266653217078e-05,1.2551454901149e-05,-9.89973666663258e-07,-6.19000817588115e-07,-9.7410318660426e-08,2.71080237292402e-07,-4.48250561915795e-07,1.02332924042061e-07,-1.4077931573349e-06,2.81145745087491e-07,-5.16051478244854e-06,2.73815168930559e-06
-3.34383785282624e-06,-8.7386403791347e-07,-1.27333650274445e-06,-4.47479230620902e-07,2.94905688101059e-06,-1.42164485309889e-06,-7.21130186965407e-06,2.00499432464596e-06,-6.1850626365842e-06,2.77099564845509e-06,-3.19118222389599e-06,2.73071816520897e-06,-3.58472118612359e-06,2.78935178052788e-07,2.30231739621954e-06,4.37190155962087e-07,-1.94500459765256e-06,6.25289427443511e-07,5.78899385065509e-07,3.84796894838674e-07,-1.44531255718244e-06,2.44767268666698e-07,-7.0533681625449e-07,2.24743410398827e-06,-4.542591137932e-06,-2.69734081008601e-07,-7.04185752928567e-06,9.16453794715223e-06,8.81719372522466e-06,-4.72323132019477e-06,-3.04512969473759e-07,5.42298597628134e-07,-2.5766474796516e-06,-2.03704230219773e-07,4.1177374571569e-06,1.72181553075001e-06,-2.87937189138239e-06,1.59266740532399e-06,-5.52808995499199e-06,1.84150917137929e-06,1.53763164988809e-06,1.29009781917736e-06,3.61059296668606e-06,-2.09331762815372e-06,-1.12807366959322e-05,1.97604898050962e-05,3.81962194098049e-07,-1.47994473768405e-07,2.12349446224159e-05,-1.52059607413797e-05,4.07140239070412e-06,2.56434473535054e-08,2.28863426259021e-06,-9.18955514602748e-07,2.57143421021834e-06,-7.70000517676445e-07,-2.55143388483655e-06,-5.40778676147181e-07,3.90489440196301e-06,-3.35698875630081e-06,-1.13851271459607e-05,1.25859312075939e-05,-9.73060496022659e-07,-6.50746887776344e-07,-8.64982780502319e-08,2.61893649219293e-07,-4.47986807186294e-07,9.47675274437775e-08,-1.241552266287e-06,3.05392745842184e-07,-4.97349254770849e-06,2.7278027453118e-06
-3.1987921064636e-06,-8.57206422172729e-07,-1.18390681796927e-06,-4.35424159578114e-07,2.87728141793953e-06,-1.32785791820414e-06,-6.78193846204104e-06,1.82410630323507e-06,-5.9317949186184e-06,2.76629889160335e-06,-3.119445944532e-06,2.72918999057026e-06,-3.53034961326496e-06,2.80331315282996e-07,2.32006846034375e-06,4.13091982680031e-07,-1.76966090032745e-06,6.38925982956708e-07,7.15631924435219e-07,4.74215321238751e-07,-1.45043333385255e-06,2.3140024319211e-07,-6.38765439304485e-07,2.24996862195095e-06,-4.40531606219383e-06,-3.21868631716793e-07,-7.05102521205317e-06,9.22785601414606e-06,8.94791881897106e-06,-4.58945174723422e-06,-2.28531669251597e-07,4.6645288631608e-07,-2.4763974479379e-06,-2.02588897458568e-07,4.30529808243151e-06,1.49717214863124e-06,-2.84725507341548e-06,1.58466201040054e-06,-5.36003188629616e-06,1.86496769694252e-06,1.51630039587693e-06,1.35206667886894e-06,3.74569111806987e-06,-2.09695715705473e-06,-1.15037623807153e-05,2.05163633481068e-05,3.7200108668546e-07,-7.17090833280621e-08,2.11098871222972e-05,-1.50557338331536e-05,3.99003305559884e-06,9.55964689604599e-08,2.66313862471208e-06,-7.63758676923925e-07,2.24571835444181e-06,-3.11763327128239e-07,-2.47219827208357e-06,-5.9459356231356e-07,3.97522404539998e-06,-3.36277189748038e-06,-1.09396198173511e-05,1.2601690736115e-05,-9.54725689371017e-07,-6.82006626126964e-07,-7.54312320946266e-08,2.52508070804799e-07,-4.46653788714839e-07,8.71043238871133e-08,-1.07882173265161e-06,3.2801984243794e-07,-4.78892799943065e-06,2.7152918454737e-06
-3.04875568946904e-06,-8.41332079146125e-07,-1.09125168910025e-06,-4.2406157943714e-07,2.79428971139574e-06,-1.22815889946087e-06,-6.35549104557999e-06,1.64654532473532e-06,-5.6761774417453e-06,2.76077140448565e-06,-3.03843670706152e-06,2.72565490076156e-06,-3.47051002692801e-06,2.81585877310969e-07,2.34294131620628e-06,3.88795123573181e-07,-1.58986312327837e-06,6.51660731563323e-07,8.49906141274399e-07,5.62799662614182e-07,-1.45460922437277e-06,2.17609556919349e-07,-5.7297894943518e-07,2.2519055584727e-06,-4.2651436103704e-06,-3.7446006798952e-07,-7.04910937192476e-06,9.27642255849782e-06,9.074005816746e-06,-4.45189688936073e-06,-1.50744841240093e-07,3.90195194622044e-07,-2.37673206098589e-06,-2.02003536732544e-07,4.48081560808355e-06,1.27706166676152e-06,-2.81004609466452e-06,1.57282110943293e-06,-5.193311306676e-06,1.88661542738792e-06,1.49376187672849e-06,1.41344121210898e-06,3.87401674614821e-06,-2.09850139008549e-06,-1.17555926352391e-05,2.1287278661465e-05,3.59580019551625e-07,5.6893429719429e-09,2.09552282766709e-05,-1.48880022134236e-05,3.90379621814307e-06,1.65120446915909e-07,3.03970447493395e-06,-6.14743969525995e-07,1.91748610023455e-06,1.43011017465523e-07,-2.38699028572571e-06,-6.47105069876784e-07,4.04129366339853e-06,-3.36338595176073e-06,-1.04909743838623e-05,1.25989209285918e-05,-9.35015879238993e-07,-7.12730411219002e-07,-6.42226727809927e-08,2.42943995656766e-07,-4.44273200773913e-07,7.93773246342408e-08,-9.2004753962959e-07,3.48981094156031e-07,-4.60740940552398e-06,2.70067861108549e-06
-2.89392698181048e-06,-8.26315141992903e-07,-9.95504464369028e-07,-4.13423106965205e-07,2.70008841943625e-06,-1.12270436040902e-06,-5.93298668176258e-06,1.47282246566632e-06,-5.41866938108893e-06,2.75443823286879e-06,-2.94787139001504e-06,2.72007772265352e-06,-3.405338943533e-06,2.82689096006095e-07,2.37109085568823e-06,3.64325802639579e-07,-1.40573163287506e-06,6.63514468465086e-07,9.81410137189858e-07,6.50322146809297e-07,-1.4578442341054e-06,2.03383591964868e-07,-5.07883732767399e-07,2.25317901631332e-06,-4.12244097360694e-06,-4.27399199803356e-07,-7.0360804135308e-06,9.31017524610252e-06,9.19480750968946e-06,-4.31052851631546e-06,-7.15029714961197e-08,3.13866049234103e-07,-2.27797435927561e-06,-2.01972933394635e-07,4.64388620611335e-06,1.06214385007561e-06,-2.76783398999906e-06,1.55719614459933e-06,-5.02839987128059e-06,1.90633799221389e-06,1.47006625243123e-06,1.4740891168985e-06,3.99516845853986e-06,-2.09782761851335e-06,-1.20338541085289e-05,2.20689580372083e-05,3.44726204809765e-07,8.40487094823876e-08,2.07710520970052e-05,-1.47025927822566e-05,3.81301857052117e-06,2.34028118553202e-07,3.41762716696887e-06,-4.72200657783211e-07,1.58729313949515e-06,5.93514056039941e-07,-2.29602036308758e-06,-6.9823501409641e-07,4.10291446122623e-06,-3.35885879311278e-06,-1.00400454743823e-05,1.25778901821791e-05,-9.13974134160835e-07,-7.42874008896599e-07,-5.28790457076174e-08,2.33219746410458e-07,-4.40864223190969e-07,7.16189638495251e-08,-7.65640262393807e-07,3.68238187951577e-07,-4.42947459846813e-06,2.68402695092771e-06
-2.73452073358466e-06,-8.12224451104057e-07,-8.96808983949692e-07,-4.03535878586914e-07,2.59473698967339e-06,-1.0116789275862e-06,-5.51539425278147e-06,1.30341195984671e-06,-5.15971200700124e-06,2.74732291548156e-06,-2.84751140406213e-06,2.71243030347563e-06,-3.33499064276183e-06,2.83632140908066e-07,2.40464198703408e-06,3.39707220904393e-07,-1.21741047699414e-06,6.7450933067521e-07,1.10984990239749e-06,7.36564074048051e-07,-1.46014427442063e-06,1.88712562598116e-07,-4.43383606670012e-07,2.25372654241923e-06,-3.97757320659861e-06,-4.80576577794091e-07,-7.01192344370655e-06,9.32908381226061e-06,9.30970322998121e-06,-4.1653286938786e-06,8.8571173426161e-09,2.37793831416473e-07,-2.18042886174469e-06,-2.02518758450936e-07,4.79418418055478e-06,8.53037692272684e-07,-2.72072476002695e-06,1.53785417864267e-06,-4.86573680020278e-06,1.92403137964544e-06,1.44526920314821e-06,1.53387907761762e-06,4.10877711136652e-06,-2.09482451603073e-06,-1.23359551692044e-05,2.28570060434319e-05,3.27478142206732e-07,1.63212641452188e-07,2.05575704723429e-05,-1.44994220230439e-05,3.71804391496582e-06,3.02133879335393e-07,3.79619588026041e-06,-3.36391498448694e-07,1.25570665950258e-06,1.03895792128693e-06,-2.19951905511699e-06,-7.47911889424059e-07,4.15992756957087e-06,-3.34925086397049e-06,-9.58770899565478e-06,1.25389447054714e-05,-8.91639695410076e-07,-7.72398701131277e-07,-4.13997321747467e-08,2.23351394695346e-07,-4.36443392378601e-07,6.38599532506035e-08,-6.15973454903664e-07,3.8576046199204e-07,-4.255609095123e-06,2.66540483043084e-06
-2.57076751664742e-06,-7.99123315163045e-07,-7.953192171668e-07,-3.94422512670598e-07,2.47834804623234e-06,-8.95294503675258e-07,-5.10362228548352e-06,1.13874962890144e-06,-4.89972831980202e-06,2.73944777021879e-06,-2.73716594552216e-06,2.70269154784486e-06,-3.25963620272845e-06,2.84407145852208e-07,2.44368924636915e-06,3.14959548284981e-07,-1.02506661829914e-06,6.84668567216177e-07,1.23495034079553e-06,8.21316667446991e-07,-1.46151693654802e-06,1.73588776015085e-07,-3.79380471504965e-07,2.25348924851763e-06,-3.83090239844515e-06,-5.33882567611548e-07,-6.97663894576845e-06,9.33314988053637e-06,9.41810181811208e-06,-4.01630045407963e-06,9.00144800350758e-08,1.62292417684124e-07,-2.08438036832152e-06,-2.03659401670172e-07,4.9314638974775e-06,6.50318896141134e-07,-2.66884069496172e-06,1.51487727347632e-06,-4.70572716900362e-06,1.93960250614184e-06,1.41943152427821e-06,1.59268118426802e-06,4.21450764257122e-06,-2.08939314030297e-06,-1.26591058092431e-05,2.36469355335229e-05,3.0788548097945e-07,2.43021032317781e-07,2.03151232919495e-05,-1.42784978067265e-05,3.61923100975246e-06,3.69254401156716e-07,4.17469592511562e-06,-2.07552265212131e-07,9.23303384543763e-07,1.47857791926655e-06,-2.09773631266579e-06,-7.96071016535018e-07,4.21220448463515e-06,-3.33465510976087e-06,-9.13485992691503e-06,1.24825055034135e-05,-8.68047764034855e-07,-8.01271354309052e-07,-2.97771261711261e-08,2.13352710699911e-07,-4.31024537493414e-07,5.61291615827461e-08,-4.71382307388422e-07,4.01524896309655e-07,-4.08624465787714e-06,2.64488401854062e-06
-2.40291309106477e-06,-7.87069296179816e-07,-6.91198861485308e-07,-3.8610109613877e-07,2.35108741068303e-06,-7.73789319590057e-07,-4.69851721657591e-06,9.79231604504729e-07,-4.6391228188146e-06,2.73083416896318e-06,-2.61669494838427e-06,2.69084742193556e-06,-3.1794624734875e-06,2.85007227390498e-07,2.48829656786861e-06,2.90099954553439e-07,-8.28889009436256e-07,6.94016324727366e-07,1.35645616635709e-06,9.04381855649511e-07,-1.46197128472933e-06,1.58006873501993e-07,-3.15774939791054e-07,2.2524118916008e-06,-3.68278691304748e-06,-5.87207416177402e-07,-6.93024355430255e-06,9.32240689156926e-06,9.51944435183865e-06,-3.86346822834892e-06,1.71666008541346e-07,8.76589506334884e-08,-1.99009293784744e-06,-2.05409835468706e-07,5.05556118157431e-06,4.54517621876314e-07,-2.61231964467166e-06,1.48836181081144e-06,-4.54874048618373e-06,1.95296968326856e-06,1.39261869192356e-06,1.6503673569183e-06,4.31206069353336e-06,-2.08144782076709e-06,-1.30003386394719e-05,2.44341939449446e-05,2.86008829880496e-07,3.23310603731218e-07,2.00441777741088e-05,-1.40399204453263e-05,3.51695133675985e-06,4.35209247801995e-07,4.55241101935198e-06,-8.58913770915213e-08,5.90667546982689e-07,1.91163499668964e-06,-1.99094073598101e-06,-8.4265459215474e-07,4.25964718255555e-06,-3.31519656030205e-06,-8.68241015857599e-06,1.24090654529443e-05,-8.4322934069776e-07,-8.29464426957433e-07,-1.79968049703343e-08,2.03235145367362e-07,-4.24618779816087e-07,4.84535179554271e-08,-3.32162578381054e-07,4.15516068497985e-07,-3.92175829707723e-06,2.62253981465148e-06
-2.23121768648033e-06,-7.76114020600732e-07,-5.84620900717737e-07,-3.78585195555907e-07,2.21317377281989e-06,-6.47426833016747e-07,-4.30086208581916e-06,8.25213342870416e-07,-4.37828139455044e-06,2.72150279708547e-06,-2.48601168786251e-06,2.67689092607282e-06,-3.09467099553748e-06,2.85426494527874e-07,2.53849721241997e-06,2.65142677397134e-07,-6.29087520344651e-07,7.02577446439406e-07,1.47413267012099e-06,9.85572986428838e-07,-1.4615176702578e-06,1.4196404911659e-07,-2.52466941332859e-07,2.25044291776498e-06,-3.53358068676131e-06,-6.40441323615604e-07,-6.87277098092581e-06,9.29692022163191e-06,9.61320662878987e-06,-3.70687804074203e-06,2.53528113559325e-07,1.41717873488684e-08,-1.89780904284138e-06,-2.07781509401716e-07,5.16639409156534e-06,2.66116621937085e-07,-2.55131423830427e-06,1.45841775741158e-06,-4.39510956317544e-06,1.96406298250421e-06,1.36490040416988e-06,1.70681177620604e-06,4.40117401700162e-06,-2.07091693289945e-06,-1.33565308827442e-05,2.52141898239335e-05,2.61919519412905e-07,4.03915474505049e-07,1.97453270240592e-05,-1.37838830115453e-05,3.41158681209185e-06,4.998214892211e-07,4.9286255180637e-06,2.84103738308257e-08,2.58388810416596e-07,2.33741807023156e-06,-1.87941877715183e-06,-8.87611652649742e-07,4.30218786711618e-06,-3.29103150861178e-06,-8.23128633658541e-06,1.23191864150455e-05,-8.17211121218226e-07,-8.5695591723313e-07,-6.03779291874771e-09,1.93007847572762e-07,-4.17234592748728e-07,4.08579381184869e-08,-1.98569804074694e-07,4.27726072351058e-07,-3.76247171048752e-06,2.59845075739153e-06
-2.0559551997098e-06,-7.66303018597755e-07,-4.75767119700638e-07,-3.7188389346012e-07,2.06487802661956e-06,-5.16494481833614e-07,-3.91137564670206e-06,6.77008930703435e-07,-4.11757133622197e-06,2.71147389380419e-06,-2.34508500052949e-06,2.66082203689435e-06,-3.0054768718083e-06,2.85660049165019e-07,2.59429385080561e-06,2.40099125234499e-07,-4.25891735921025e-07,7.10377282827896e-07,1.58776635545523e-06,1.0647154707669e-06,-1.46016756914406e-06,1.25460243222449e-07,-1.89356304619337e-07,2.2475344758362e-06,-3.38363256389716e-06,-6.9347453915455e-07,-6.80427315993265e-06,9.25678757814644e-06,9.69890140007013e-06,-3.54659746675785e-06,3.35338110350391e-07,-5.79113284958746e-08,-1.80774890267466e-06,-2.10782274232306e-07,5.26396305214008e-06,8.55498020526595e-08,-2.48599105553009e-06,1.42516787497961e-06,-4.24512968118499e-06,1.97282449840111e-06,1.33635010280805e-06,1.76189131969324e-06,4.48162366898406e-06,-2.05774355944411e-06,-1.37244272683378e-05,2.59823195154773e-05,2.35699318772869e-07,4.84667735599838e-07,1.94192878412598e-05,-1.35106709469765e-05,3.30352745980991e-06,5.6291831495274e-07,5.30262657402332e-06,1.35200001728284e-07,-7.29398303807291e-08,2.75524619211226e-06,-1.76347388842404e-06,-9.30897961768186e-07,4.33978832499084e-06,-3.26234625206596e-06,-7.78242768545129e-06,1.22134963186819e-05,-7.90015452518828e-07,-8.83729250289844e-07,6.12708171031793e-09,1.82677716841858e-07,-4.08877919572909e-07,3.33652727577274e-08,-7.08187875048474e-08,4.38154397875325e-07,-3.60865115228021e-06,2.57269831639199e-06
-1.87741231214124e-06,-7.57675593468492e-07,-3.64827574302483e-07,-3.66001850581765e-07,1.90652228239475e-06,-3.8130230170131e-07,-3.53071188692229e-06,5.34890680523932e-07,-3.8573414504814e-06,2.7007674698279e-06,-2.1939410967586e-06,2.64264761962725e-06,-2.91210760388021e-06,2.85703976784681e-07,2.65565879389781e-06,2.14978012216559e-07,-2.19549649043455e-07,7.17441512661316e-07,1.69716543957817e-06,1.14164735651237e-06,-1.45793344720151e-06,1.0849830871641e-07,-1.26343317518672e-07,2.24364240854206e-06,-3.23328564045259e-06,-7.46197505747311e-07,-6.72482167355005e-06,9.20213972647057e-06,9.77608035255423e-06,-3.38271536769539e-06,4.16855293542653e-07,-1.2835483088348e-07,-1.72010999676396e-06,-2.14416334243539e-07,5.34835040287359e-06,-8.67988548281662e-08,-2.4165297532998e-06,1.38874687505867e-06,-4.09905805844759e-06,1.97920851099424e-06,1.30704447971444e-06,1.8154860029975e-06,4.55322498028557e-06,-2.04188603673771e-06,-1.41006637464145e-05,2.67339939777936e-05,2.07440108806747e-07,5.65398029218399e-07,1.90668977932284e-05,-1.32206609787107e-05,3.19316906931994e-06,6.2433164615249e-07,5.6737062090084e-06,2.34352419745326e-07,-4.02724151001415e-07,3.16447053147359e-06,-1.64342561085786e-06,-9.72475834563496e-07,4.3724388852933e-06,-3.22935538261096e-06,-7.33678377245816e-06,1.20926861379609e-05,-7.61660354020437e-07,-9.0977310710394e-07,1.85307380587017e-08,1.72249489886998e-07,-3.99552345867524e-07,2.59962767870302e-08,5.09166307101362e-08,4.46807771931636e-07,-3.46050772118975e-06,2.54536656792551e-06
-1.6958875323203e-06,-7.50264722715287e-07,-2.520000176549e-07,-3.60939393913709e-07,1.73847856259009e-06,-2.42181417720503e-07,-3.15945995102734e-06,3.99089011933594e-07,-3.5979222890286e-06,2.68940349915175e-06,-2.03266494536649e-06,2.62238131014452e-06,-2.81480190406378e-06,2.85555327266144e-07,2.72253436137606e-06,1.89785522735899e-07,-1.03262742332671e-08,7.23795973191908e-07,1.80216022136293e-06,1.21621982952337e-06,-1.45482865632903e-06,9.10841485099101e-08,-6.33292700107789e-08,2.2387262249515e-06,-3.08287658440332e-06,-7.9850107370979e-07,-6.63450947734722e-06,9.13314154517298e-06,9.84433583232043e-06,-3.21534140706308e-06,4.97861682857043e-07,-1.96946598061658e-07,-1.63506675765482e-06,-2.18684227514367e-07,5.41971946359802e-06,-2.50596099617883e-07,-2.34312215515586e-06,1.34930052156691e-06,-3.9571136194126e-06,1.98318154918213e-06,1.27706297192087e-06,1.86747942440061e-06,4.61583330158017e-06,-2.0233183812468e-06,-1.4481791949216e-05,2.74646656851771e-05,1.77243511664063e-07,6.45936131051062e-07,1.86891115764251e-05,-1.29143193613735e-05,3.08091085770575e-06,6.83898745953338e-07,6.04116328471042e-06,3.25770449607068e-07,-7.30370785978481e-07,3.56447616307521e-06,-1.51960859838246e-06,-1.01231391127719e-06,4.40015700969086e-06,-3.1922996428392e-06,-6.89531215533468e-06,1.19575066714523e-05,-7.32159606917402e-07,-9.35081199257379e-07,3.12113054293978e-08,1.61725857732385e-07,-3.89259323000766e-07,1.87695984418748e-08,1.665035200423e-07,4.53699959643832e-07,-3.31819805437473e-06,2.51654185540313e-06
-1.51169016989569e-06,-7.44096991907378e-07,-1.37489284750701e-07,-3.56692630022229e-07,1.56116718795962e-06,-9.948242040127e-08,-2.7981444550008e-06,2.69792613973263e-07,-3.33962648229468e-06,2.67740208241457e-06,-1.86140121021014e-06,2.60004336604884e-06,-2.71380849425557e-06,2.85212086019714e-07,2.79483338171464e-06,1.64525502719994e-07,2.01497797372876e-07,7.29466498165465e-07,1.90260331741765e-06,1.28829763924229e-06,-1.45086736476056e-06,7.32268233725997e-08,-2.16977417454342e-10,2.23274905058637e-06,-2.93273490814519e-06,-8.50276790362763e-07,-6.53345288715216e-06,9.04999334461771e-06,9.90330229597184e-06,-3.04460534888613e-06,5.78162429186945e-07,-2.63498897823891e-07,-1.55277044071004e-06,-2.23582835534412e-07,5.47831320397395e-06,-4.05560017925062e-07,-2.26597131046445e-06,1.30698468415818e-06,-3.81947706355252e-06,1.98472235734973e-06,1.24648724930857e-06,1.91775921192995e-06,4.66934451537546e-06,-2.00203058973158e-06,-1.48643042902957e-05,2.81698555446196e-05,1.45220477717053e-07,7.26111535494806e-07,1.82869966924693e-05,-1.25921994659321e-05,2.96715315760843e-06,7.41462828889249e-07,6.40430537071309e-06,4.09384747650099e-07,-1.05528929823196e-06,3.95468366913643e-06,-1.39237157410544e-06,-1.05038689363229e-06,4.42298556302898e-06,-3.15144339238054e-06,-6.45897585693034e-06,1.18087650410926e-05,-7.01522908971114e-07,-9.59651996948597e-07,4.42115023442855e-08,1.51107609954246e-07,-3.77998438517917e-07,1.1701786845693e-08,2.75849528184673e-07,4.58851527545443e-07,-3.18182541034401e-06,2.48631243592986e-06
-1.32513924722168e-06,-7.3919256201564e-07,-2.15066380892164e-08,-3.53253582755188e-07,1.37505486194121e-06,4.64263636124565e-08,-2.44722617966137e-06,1.4714888219942e-07,-3.0827491753823e-06,2.66478357970094e-06,-1.68035471921501e-06,2.57566048650329e-06,-2.60938490132135e-06,2.84673135753485e-07,2.87243981756026e-06,1.39199674949515e-07,4.15627885461765e-07,7.34478762408374e-07,1.99836976902248e-06,1.35775944532716e-06,-1.44606452294153e-06,5.4938629441314e-08,6.30887221952456e-08,2.22567754707841e-06,-2.783182176954e-06,-9.01417264213634e-07,-6.42179373697598e-06,8.95293233760962e-06,9.9526574766342e-06,-2.87065613746039e-06,6.57585893771502e-07,-3.27849005292423e-07,-1.47334916461125e-06,-2.29105424163287e-07,5.52445257472811e-06,-5.51460422588987e-07,-2.18529052798641e-06,1.26196434422693e-06,-3.68629122721413e-06,1.9838217677475e-06,1.21540069904501e-06,1.96621747206476e-06,4.71369530913967e-06,-1.97802880695016e-06,-1.52446595523397e-05,2.88451797213935e-05,1.11490830562108e-07,8.05754043877424e-07,1.78617284751385e-05,-1.22549387477919e-05,2.85229514942725e-06,7.96873670349825e-07,6.76245051223919e-06,4.85153643465806e-07,-1.37689422664152e-06,4.33455056726977e-06,-1.26207621780881e-06,-1.08667525316766e-06,4.44099081858779e-06,-3.10707173995519e-06,-6.02874063879826e-06,1.16473208576136e-05,-6.69756088743117e-07,-9.83488418316865e-07,5.75779379064551e-08,1.40393802918389e-07,-3.65767728831218e-07,4.80731674737071e-09,3.789022735713e-07,4.62289570150667e-07,-3.05144112170076e-06,2.45476811435839e-06
-1.1365623544804e-06,-7.3556517062786e-07,9.573092244215e-08,-3.50610354259198e-07,1.180652463848e-06,1.9516069523682e-07,-2.10710312728609e-06,3.12646224911459e-08,-2.82756856171171e-06,2.65156871112937e-06,-1.48979044832211e-06,2.54926560133662e-06,-2.50179625778283e-06,2.83938209169873e-07,2.95520951127273e-06,1.138078756012e-07,6.31756736730057e-07,7.38858132003858e-07,2.08935702193804e-06,1.42449808203564e-06,-1.44043586589174e-06,3.62351447372832e-08,1.26680503673842e-07,2.21748179579117e-06,-2.63453114430967e-06,-9.5181660226061e-07,-6.29970160114651e-06,8.84223413846905e-06,9.99212325674959e-06,-2.69366076616703e-06,7.35983435844681e-07,-3.89859505102405e-07,-1.39690811608109e-06,-2.35241716964989e-07,5.55853452666711e-06,-6.8811902568055e-07,-2.10130238541956e-06,1.21441255529168e-06,-3.55766172866788e-06,1.98048248162006e-06,1.18388791159864e-06,2.01275123870589e-06,4.74886320623133e-06,-1.95133535744502e-06,-1.56193088157443e-05,2.94863762841381e-05,7.6182771322937e-08,8.84694355306764e-07,1.74145845093394e-05,-1.1903255138338e-05,2.73673265493757e-06,8.49988215743199e-07,7.11492890216477e-06,5.53062885534676e-07,-1.69460710513731e-06,4.70357257241766e-06,-1.12909598315636e-06,-1.1211649205935e-06,4.4542602441258e-06,-3.05948739256037e-06,-5.60557207027969e-06,1.14740820241943e-05,-6.36861373397688e-07,-1.00659748602635e-06,7.136034227948e-08,1.29581949122168e-07,-3.52564029348898e-07,-1.90137066290329e-09,4.75648468123469e-07,4.6404740209979e-07,-2.92704639653467e-06,2.42199986649127e-06
-9.46294452827559e-07,-7.33222167288294e-07,2.14001381863398e-07,-3.4874730769933e-07,9.78512567941431e-07,3.46322329341551e-07,-1.77811192251355e-06,-7.77929881118728e-08,-2.57434650861929e-06,2.63777862412884e-06,-1.29003300247571e-06,2.52089763035902e-06,-2.3913141153354e-06,2.83007832916561e-07,3.04297104643363e-06,8.83483091865788e-08,8.49566059629496e-07,7.4262951951457e-07,2.17548478027957e-06,1.48842073745703e-06,-1.43399795170926e-06,1.71352440261927e-08,1.90648127366592e-07,2.20813514806734e-06,-2.48708481594968e-06,-1.00137091727033e-06,-6.1673759939729e-06,8.71821418560724e-06,1.0021466245295e-05,-2.51380295241808e-06,8.13228950377663e-07,-4.49418301763241e-07,-1.32352991203497e-06,-2.41978000317781e-07,5.58102970752759e-06,-8.15409384311656e-07,-2.01423771611774e-06,1.16450936222848e-06,-3.43365788416886e-06,1.9747187628888e-06,1.1520341741139e-06,2.05726292000101e-06,4.77486635498338e-06,-1.92198864199001e-06,-1.5984721588392e-05,3.00893315791856e-05,3.94323438563352e-08,9.6276465909782e-07,1.6946938489684e-05,-1.15379429104144e-05,2.62085600842378e-06,9.00671187109098e-07,7.46108446291988e-06,6.13125287536832e-07,-2.00785843990071e-06,5.06128468953088e-06,-9.93814840620702e-07,-1.15384696651903e-06,4.46290011771802e-06,-3.00900727422463e-06,-5.19043238686128e-06,1.12900001523248e-05,-6.02837707138396e-07,-1.02898995304111e-06,8.56107342138452e-08,1.18668224695213e-07,-3.38383356696333e-07,-8.4138117176621e-09,5.66112778438957e-07,4.64164218280894e-07,-2.80859444532267e-06,2.38809945308482e-06
-7.546766281108e-07,-7.32164583122215e-07,3.33078461347996e-07,-3.47645269519738e-07,7.69226714256053e-07,4.99500990960671e-07,-1.4605295338759e-06,-1.7999519509199e-07,-2.32332926693109e-06,2.62343492694697e-06,-1.08146557319958e-06,2.49060121396897e-06,-2.27821527695279e-06,2.81883263294474e-07,3.13552672322429e-06,6.28178190554661e-08,1.0687280729319e-06,7.45817244352355e-07,2.25669473510995e-06,1.54944904542241e-06,-1.42676823361328e-06,-2.33891879763187e-09,2.55078048673629e-07,2.19761405267503e-06,-2.3411354595666e-06,-1.04997889234353e-06,-6.0250484873292e-06,8.58122900754206e-06,1.00404980615653e-05,-2.33128164275287e-06,8.89218191922465e-07,-5.06438367273389e-07,-1.25327511139839e-06,-2.49297258524893e-07,5.59247979104751e-06,-9.33256608945557e-07,-1.92433457506971e-06,1.11244068734783e-06,-3.31431388034052e-06,1.966556048879e-06,1.11992497724632e-06,2.09966073969289e-06,4.79176308027891e-06,-1.89004290336326e-06,-1.63374119386376e-05,3.06501061434188e-05,1.38286260101263e-09,1.03979922730022e-06,1.64602535720636e-05,-1.11598680691284e-05,2.50504802053995e-06,9.48795683499259e-07,7.80027634531187e-06,6.65380268562883e-07,-2.31608962699595e-06,5.40726212548555e-06,-8.56625940967828e-07,-1.18471728409208e-06,4.46703304267741e-06,-2.95595898360435e-06,-4.78427711386272e-06,1.10960655545048e-05,-5.6768111893974e-07,-1.05067989651036e-06,1.00382535181282e-07,1.07647692020109e-07,-3.23221316830779e-07,-1.47214498130533e-08,6.50356436446332e-07,4.62684724632119e-07,-2.69599290766117e-06,2.35315902609022e-06
-5.62054796661614e-07,-7.32387234871296e-07,4.5273239617748e-07,-3.47281748833847e-07,5.53422462353483e-07,6.5427640771987e-07,-1.1545752883082e-06,-2.75350228271756e-07,-2.07474825433572e-06,2.60855968848151e-06,-8.64528353407695e-07,2.45842641648616e-06,-2.16278065168885e-06,2.80566414475436e-07,3.23265364751641e-06,3.72121706584035e-08,1.28890706772102e-06,7.48444898967087e-07,2.33295016814739e-06,1.60751908874542e-06,-1.41876516046699e-06,-2.21619617183273e-08,3.20053063013372e-07,2.18589787355876e-06,-2.19696358870796e-06,-1.09754237942713e-06,-5.87298469514496e-06,8.43167726211485e-06,1.00490753341942e-05,-2.14630937947087e-06,9.63867914377356e-07,-5.60857253051275e-07,-1.18618286724494e-06,-2.57179336696005e-07,5.59349437226882e-06,-1.04163680223256e-06,-1.83183718675011e-06,1.05839719327524e-06,-3.19963018527707e-06,1.95603048302875e-06,1.08764554072471e-06,2.13985916928915e-06,4.7996512044238e-06,-1.85556786866956e-06,-1.66739643134916e-05,3.11649597849249e-05,-3.7815695484082e-08,1.11563500588098e-06,1.59560752727674e-05,-1.07699633190105e-05,2.3896820484719e-06,9.94243770459032e-07,8.13188035117919e-06,7.09893280124161e-07,-2.61875479186167e-06,5.74112100579595e-06,-7.17930196195651e-07,-1.21377628181323e-06,4.46679544859758e-06,-2.9006771786881e-06,-4.38805142636883e-06,1.08933017768107e-05,-5.31385136633608e-07,-1.0716842786457e-06,1.15729641430328e-07,9.65145344679576e-08,-3.07073532025734e-07,-2.08175514452165e-08,7.2847561328257e-07,4.5965874272798e-07,-2.58910655055636e-06,2.3172707284539e-06
-3.68778365799956e-07,-7.33878863396114e-07,5.72730738642782e-07,-3.4763117161359e-07,3.31760256987933e-07,8.10220384938966e-07,-8.60413149891005e-07,-3.63901647687314e-07,-1.8288209016961e-06,2.59317540490691e-06,-6.39716399345466e-07,2.4244284039508e-06,-2.04529413557353e-06,2.79059780190698e-07,3.33410493352346e-06,1.15263448230542e-08,1.50976098204011e-06,7.50535221563721e-07,2.40423543080343e-06,1.6625813132802e-06,-1.41000829984313e-06,-4.2305359455695e-08,3.85651984472012e-07,2.17296870794259e-06,-2.05483695330004e-06,-1.14396700490293e-06,-5.71148606775465e-06,8.27000047946231e-06,1.00470994321504e-05,-1.95911056824155e-06,1.03711485089227e-06,-6.12636383544232e-07,-1.12227170889638e-06,-2.65601129189759e-07,5.58474736553947e-06,-1.14057617930071e-06,-1.73699487758902e-06,1.00257313276455e-06,-3.08957517850952e-06,1.94318837517318e-06,1.05528036140233e-06,2.17777934725692e-06,4.79866714431696e-06,-1.81864827579509e-06,-1.6991058646356e-05,3.16303753361336e-05,-7.80073341019873e-08,1.19011220336742e-06,1.54360239670249e-05,-1.03692226618109e-05,2.27512018328216e-06,1.03690705261952e-06,8.45529028349498e-06,7.46755113591439e-07,-2.91532253322269e-06,6.06251888215056e-06,-5.78134778721926e-07,-1.24102859156358e-06,4.46233516141011e-06,-2.84349997888241e-06,-4.00268623477094e-06,1.06827596471818e-05,-4.93941241428034e-07,-1.09202247600838e-06,1.31705466461637e-07,8.52623003407769e-08,-2.89936079489326e-07,-2.66971097970841e-08,8.00599572352313e-07,4.55140791390559e-07,-2.48776020846932e-06,2.28052628907453e-06
-1.75198854722521e-07,-7.36622306488454e-07,6.92839183210088e-07,-3.48665127564897e-07,1.04930127443531e-07,9.66898910306109e-07,-5.78154235639861e-07,-4.45726491967397e-07,-1.58575155252521e-06,2.57730493389564e-06,-4.07576945241367e-07,2.38866709790243e-06,-1.9260415224548e-06,2.77366350053146e-07,3.43961101748513e-06,-1.42451615805895e-08,1.73094298201109e-06,7.52109975444653e-07,2.470555298647e-06,1.71460035332963e-06,-1.40051847912752e-06,-6.27375615776059e-08,4.51949357024201e-07,2.15881120815581e-06,-1.9150095669723e-06,-1.18916275945615e-06,-5.54089143135814e-06,8.09668344671208e-06,1.00345159494871e-05,-1.76991968996363e-06,1.10891455142241e-06,-6.61760140947595e-07,-1.06154044385311e-06,-2.74536791527866e-07,5.5669728660031e-06,-1.23014982649473e-06,-1.64006099674874e-06,9.45165195172015e-07,-2.9840869794627e-06,1.92808559599063e-06,1.02291278626223e-06,2.2133494810865e-06,4.78898479111103e-06,-1.77938329059332e-06,-1.72854944169906e-05,3.20430806401286e-05,-1.19030715740697e-07,1.26307487570226e-06,1.49017870387747e-05,-9.95869568779211e-06,2.1617115618609e-06,1.07668722181085e-06,8.76991922207415e-06,7.76081084440519e-07,-3.20527755803564e-06,6.37115502109855e-06,-4.37651543414515e-07,-1.26648279416188e-06,4.45380910261616e-06,-2.78476545927727e-06,-3.62909401875376e-06,1.04655108391801e-05,-4.5533935425753e-07,-1.11171578287487e-06,1.48361966599776e-07,7.38841531919097e-08,-2.71805934951803e-07,-3.23567369826271e-08,8.6688861895511e-07,4.49189648292856e-07,-2.39174193548362e-06,2.24301661510794e-06
1.8331515307566e-08,-7.40594705451785e-07,8.12822409287692e-07,-3.50352627771803e-07,-1.26351764154692e-07,1.12387427550948e-06,-3.07859542833037e-07,-5.20933250383562e-07,-1.3457324074629e-06,2.56097139768774e-06,-1.68706193358182e-07,2.35120680622001e-06,-1.80530944967352e-06,2.75489521905558e-07,3.54888107653745e-06,-4.01080300426453e-08,1.95210303617734e-06,7.53189834380536e-07,2.5319342017083e-06,1.76355477004535e-06,-1.39031794266815e-06,-8.34241422950715e-08,5.19015200407825e-07,2.14341240168615e-06,-1.77772079569551e-06,-1.23304455600481e-06,-5.36157819891381e-06,7.912254183324e-06,1.00113139656302e-05,-1.57897949766284e-06,1.17924009228154e-06,-7.082347562603e-07,-1.00396917039928e-06,-2.83957973464228e-07,5.54096047360226e-06,-1.31048009116822e-06,-1.54129183151613e-06,8.86371359629047e-07,-2.8830754549392e-06,1.91078691304031e-06,9.90624612116546e-07,2.24650522746355e-06,4.77081417867916e-06,-1.73788582052317e-06,-1.75542134903197e-05,3.24000685418124e-05,-1.60719874667337e-07,1.3343715053772e-06,1.43551107390009e-05,-9.5394816314261e-06,2.04979080693767e-06,1.1134965724603e-06,9.07520071826578e-06,7.98010094115508e-07,-3.48812220230849e-06,6.66677047322023e-06,-2.96895380090256e-07,-1.29015116267997e-06,4.44138115395461e-06,-2.72480829476166e-06,-3.26816446433016e-06,1.02426409810348e-05,-4.15568342493296e-07,-1.13078689993016e-06,1.6574866171167e-07,6.23731258499771e-08,-2.52681415449637e-07,-3.77945460912083e-08,9.27531864738022e-07,4.4186789432216e-07,-2.30080634119816e-06,2.20483138458559e-06
2.11461251291097e-07,-7.45767744451418e-07,9.3244493536089e-07,-3.5266037126778e-07,-3.61346711282273e-07,1.2807072030754e-06,-4.95428608799262e-08,-5.89659682514025e-07,-1.10894450552709e-06,2.54419805695088e-06,7.62543831368223e-08,2.3121158321394e-06,-1.68338438349192e-06,2.7343301168991e-07,3.66160454553017e-06,-6.60678122256701e-08,2.17288946718829e-06,7.53794273466309e-07,2.58841533224265e-06,1.80943670520098e-06,-1.37943052434398e-06,-1.04327980072493e-07,5.86914798104711e-07,2.12676149629244e-06,-1.64319452654748e-06,-1.27553274229415e-06,-5.17396317221732e-06,7.71728345979158e-06,9.97752510027622e-06,-1.38653923367633e-06,1.24808067606669e-06,-7.52087037873987e-07,-9.49520392020739e-07,-2.93834070284904e-07,5.50755011202735e-06,-1.38173463782975e-06,-1.44094552681854e-06,8.26389766009371e-07,-2.78642438678452e-06,1.89136527615822e-06,9.58495713419177e-07,2.27719004552424e-06,4.74439994902737e-06,-1.6942817305735e-06,-1.77943217033057e-05,3.26986148612464e-05,-2.02904964263198e-07,1.40385557182616e-06,1.37977918137979e-05,-9.11272325838104e-06,1.93967659441999e-06,1.14725847716291e-06,9.37058990092863e-06,8.12703574384789e-07,-3.76337784237677e-06,6.94914793218598e-06,-1.56282506092812e-07,-1.3120494219472e-06,4.42522021328315e-06,-2.66395660796197e-06,-2.92075997293273e-06,1.00152423691133e-05,-3.7461653233162e-07,-1.14925942445883e-06,1.83911662575231e-07,5.07223758001683e-08,-2.32562615979265e-07,-4.30100242518126e-08,9.82744826483381e-07,4.33241443831683e-07,-2.21467808248513e-06,2.16605864326977e-06
4.03841031465596e-07,-7.52107921247186e-07,1.05147197877235e-06,-3.55553018610328e-07,-5.99297167332844e-07,1.43695896810637e-06,1.96826165910637e-07,-6.52070511876821e-07,-8.7555873019374e-07,2.52700815829219e-06,3.26622177964188e-07,2.27146606305312e-06,-1.56055164640211e-06,2.71200762161646e-07,3.77745272764847e-06,-9.21296215955157e-08,2.39295047240488e-06,7.53941465978785e-07,2.64005963364885e-06,1.85225145329483e-06,-1.36788183374568e-06,-1.25409465323628e-07,6.55708538250743e-07,2.10884965583861e-06,-1.51163843376406e-06,-1.31655355097583e-06,-4.97850286522223e-06,7.5123838139657e-06,9.93322237945497e-06,-1.19285289683274e-06,1.31544014815348e-06,-7.93362980134473e-07,-8.98140223007867e-07,-3.04132489039288e-07,5.46762638342311e-06,-1.44412421308199e-06,-1.33928101958409e-06,7.65417615284711e-07,-2.69399377922228e-06,1.86990105996765e-06,9.26603699492896e-07,2.30535551857092e-06,4.71001962578737e-06,-1.64870896860976e-06,-1.80031092097967e-05,3.29362944097804e-05,-2.45413037578941e-07,1.4713861092502e-06,1.32316689550934e-05,-8.67960063006807e-06,1.83167034383986e-06,1.17790781725203e-06,9.65556448983368e-06,8.20344320878927e-07,-4.03058620787448e-06,7.21811139908345e-06,-1.62287087933543e-08,-1.33219652128802e-06,4.40549847198547e-06,-2.60252908404966e-06,-2.58771110287323e-06,9.78440636462846e-06,-3.32472210100778e-07,-1.16715735914747e-06,2.02892716943244e-07,3.89254399349446e-08,-2.11451834194426e-07,-4.80038979935772e-08,1.03276688144151e-06,4.23379064608493e-07,-2.13305548130836e-06,2.12678441056856e-06
5.95125158065157e-07,-7.59576847679645e-07,1.1696703184198e-06,-3.58993470408603e-07,-8.39430533098856e-07,1.59219350601246e-06,4.31318867839833e-07,-7.08355021100263e-07,-6.45736821523035e-07,2.50942475923726e-06,5.81677984039654e-07,2.22933254113726e-06,-1.43709448296198e-06,2.68796851474174e-07,3.89608050134175e-06,-1.18297827517292e-07,2.61193562096664e-06,7.53648188175442e-07,2.68694467675281e-06,1.89201695599451e-06,-1.3556994511949e-06,-1.4662673424019e-07,7.254518171515e-07,2.08966973881195e-06,-1.38324336006984e-06,-1.35603946552536e-06,-4.7756933030616e-06,7.29820802680564e-06,9.87851892775413e-06,-9.98177583420495e-07,1.38133546321128e-06,-8.32126294691467e-07,-8.49759671050517e-07,-3.14818926618722e-07,5.42211248317657e-06,-1.49790012002742e-06,-1.23655699701626e-06,7.03650110161111e-07,-2.60562228089038e-06,1.84648127115858e-06,8.9502360237676e-07,2.3309616403253e-06,4.66798171007028e-06,-1.60131660925796e-06,-1.81780695715826e-05,3.31109951103906e-05,-2.88068859827706e-07,1.53682824804803e-06,1.26586141089016e-05,-8.24132476719292e-06,1.72605502610358e-06,1.2053913641475e-06,9.92962571938767e-06,8.21135222811448e-07,-4.28931061011984e-06,7.47352566904708e-06,1.2285245405027e-07,-1.35061441771474e-06,4.38238994831919e-06,-2.54083241710817e-06,-2.26981198032244e-06,9.55121555596006e-06,-2.891240956341e-07,-1.18450465315395e-06,2.22728288074919e-07,2.69764867760174e-08,-1.89353976148818e-07,-5.27779921752216e-08,1.07785860528917e-06,4.12351891883163e-07,-2.05561423418961e-06,2.08709229946284e-06
7.84973020970769e-07,-7.68131578146546e-07,1.28680916130466e-06,-3.62943148791511e-07,-1.08096298608995e-06,1.74597949794334e-06,6.54044320509508e-07,-7.58724575514464e-07,-4.19632369641533e-07,2.49147053512874e-06,8.40670881407478e-07,2.18579301807543e-06,-1.31329315579612e-06,2.66225402500179e-07,4.01712813093529e-06,-1.44575754730451e-07,2.82949734789001e-06,7.52929734760468e-07,2.72916343239667e-06,1.9287632243205e-06,-1.34291312457321e-06,-1.67935925946281e-07,7.96195011320149e-07,2.06921599984049e-06,-1.2581828266865e-06,-1.39392948582614e-06,-4.56606926388824e-06,7.07544702576476e-06,9.81356649922718e-06,-8.02771917001852e-07,1.44579514053487e-06,-8.68456902997696e-07,-8.04295979589745e-07,-3.25857656814536e-07,5.37196368818993e-06,-1.54335136249495e-06,-1.13303088527171e-06,6.41279446098156e-07,-2.52112969153418e-06,1.82119872822722e-06,8.6382759619973e-07,2.35397706224591e-06,4.61862361537809e-06,-1.55226382684119e-06,-1.83169175806235e-05,3.3220930305243e-05,-3.30695751790066e-07,1.60005373664985e-06,1.20805236637469e-05,-7.79913122356068e-06,1.6230940832787e-06,1.22966810675721e-06,1.01922991808847e-05,8.15297897446259e-07,-4.53913710026223e-06,7.71529565786425e-06,2.60551490965738e-07,-1.36732786942947e-06,4.35606929585686e-06,-2.47915912766514e-06,-1.967815697732e-06,9.31673576095032e-06,-2.44561772345334e-07,-1.20132478475008e-06,2.4344868115075e-07,1.48705639179745e-08,-1.66276935244425e-07,-5.73350837904312e-08,1.11829902187643e-06,4.00232940830237e-07,-1.98201117406685e-06,2.04706315431394e-06
9.7305057245456e-07,-7.7772496414074e-07,1.40266101531894e-06,-3.67362280056913e-07,-1.32310331330029e-06,1.89789242539974e-06,8.65146102152621e-07,-8.03410099874024e-07,-1.97391764357601e-07,2.47316757248981e-06,1.10282344386868e-06,2.14092749652241e-06,-1.18942406248401e-06,2.63490493771022e-07,4.14022318625857e-06,-1.70965391318263e-07,3.04529246429871e-06,7.51799847402334e-07,2.76682295232992e-06,1.96253169471014e-06,-1.3295549612624e-06,-1.89291459384915e-07,8.67983520155321e-07,2.04748375970822e-06,-1.13661267221387e-06,-1.43016929431879e-06,-4.35020292335075e-06,6.8448271833384e-06,9.73855385487221e-06,-6.06894570726837e-07,1.50885775028268e-06,-9.02449425679755e-07,-7.61654012453985e-07,-3.37211823017538e-07,5.31816046215055e-06,-1.58080144828648e-06,-1.02895787352094e-06,5.78493862786034e-07,-2.44031952116245e-06,1.79415122185744e-06,8.3308474846675e-07,2.37437929858821e-06,4.56230945999647e-06,-1.50171880807282e-06,-1.84176058291802e-05,3.32646493942477e-05,-3.73116463048227e-07,1.66094144100542e-06,1.14993095449995e-05,-7.35427359045868e-06,1.52303045693633e-06,1.25070951961338e-06,1.04431355923222e-05,8.03071242060046e-07,-4.77967557125427e-06,7.94336558644057e-06,3.9646484616856e-07,-1.38236424280298e-06,4.32671087314095e-06,-2.41778574663432e-06,-1.6824297208863e-06,9.0820079436039e-06,-1.98776062031582e-07,-1.21764039255418e-06,2.65077232862512e-07,2.60383771646417e-09,-1.42231937008251e-07,-6.16787521319477e-08,1.15438279433421e-06,3.87096621882188e-07,-1.91188804387527e-06,2.00677470870836e-06
1.15903180741422e-06,-7.88306032589763e-07,1.51700256862441e-06,-3.72210177048539e-07,-1.56505672269631e-06,2.04751658471244e-06,1.06479907226983e-06,-8.4265953079029e-07,2.08449189345911e-08,2.45453715309271e-06,1.36733721540858e-06,2.09481776197036e-06,-1.06575886779023e-06,2.60596072946476e-07,4.26498256808836e-06,-1.97467108443229e-07,3.25898368727049e-06,7.50270657626421e-07,2.80004297357221e-06,1.99337452485987e-06,-1.31565961101346e-06,-2.10646326401677e-07,9.40857877993054e-07,2.02446905130703e-06,-1.01867080597047e-06,-1.46471134183748e-06,-4.12870186178641e-06,6.60710698520279e-06,9.6537049913592e-06,-4.10802877946385e-07,1.5705704746899e-06,-9.34211705867264e-07,-7.21727665737828e-07,-3.48843732382522e-07,5.26170128586138e-06,-1.61060493917482e-06,-9.24589978224239e-07,5.15476766006181e-07,-2.36298157192852e-06,1.76544066508245e-06,8.0286080315793e-07,2.3921548860868e-06,4.49942773746468e-06,-1.44985761552968e-06,-1.84783400599211e-05,3.32410469736494e-05,-4.15154072968143e-07,1.71937781873174e-06,1.0916890251298e-05,-6.90801696733177e-06,1.4260857237321e-06,1.26849976696961e-06,1.06817115021145e-05,7.84709921081586e-07,-5.01056081511354e-06,8.15771803884271e-06,5.30196794068892e-07,-1.39575333696866e-06,4.29448802928165e-06,-2.35697132157552e-06,-1.41431135777427e-06,8.84804014741982e-06,-1.51759338514184e-07,-1.23347296151768e-06,2.87629576959815e-07,-9.82617860669053e-09,-1.17233844169499e-07,-6.58132270635338e-08,1.18641738484877e-06,3.73018262852882e-07,-1.84487524497565e-06,1.96630126432681e-06
1.34260023642642e-06,-7.99820385235761e-07,1.62961557190181e-06,-3.77445519975502e-07,-1.80602862394132e-06,2.19444705111713e-06,1.25320619531967e-06,-8.76735266840089e-07,2.349431092045e-07,2.435599532632e-06,1.63339838673413e-06,2.04754691036654e-06,-9.42563651328444e-07,2.57545873730295e-07,4.39101462649241e-06,-2.24079395249467e-07,3.47024117431164e-06,7.48352644506105e-07,2.82895446378293e-06,2.02135383480228e-06,-1.30126443847083e-06,-2.31952398257793e-07,1.01485393098523e-06,2.0001682501198e-06,-9.04477053185005e-07,-1.49751488179307e-06,-3.90220642857539e-06,6.36307307543577e-06,9.55927722889012e-06,-2.14751529648005e-07,1.63098778816196e-06,-9.63863406059429e-07,-6.8440129485475e-07,-3.60715146936503e-07,5.2035953647423e-06,-1.63314392573921e-06,-8.20175152926813e-07,4.52405928365613e-07,-2.28889451840325e-06,1.73517224319931e-06,7.73217995111913e-07,2.40729949548959e-06,4.43038888895253e-06,-1.39686301495535e-06,-1.84975932801227e-05,3.31493705730367e-05,-4.56632915628179e-07,1.77525736427026e-06,1.03351818762368e-05,-6.46163144236284e-06,1.33245933914481e-06,1.28303583925179e-06,1.09076299308017e-05,7.60482808533183e-07,-5.23145354194904e-06,8.35837290610716e-06,6.61361345513801e-07,-1.40752722905244e-06,4.25957254233076e-06,-2.29695617899001e-06,-1.16406338981412e-06,8.61579959917237e-06,-1.03505781736491e-07,-1.24884256838417e-06,3.1111299450762e-07,-2.24204129151297e-08,-9.13014188786876e-08,-6.97432373760415e-08,1.21472020708004e-06,3.58073641423264e-07,-1.78059553065363e-06,1.92571339177949e-06
1.5234503345966e-06,-8.12210615752392e-07,1.7402877163005e-06,-3.83026634311629e-07,-2.04522837736386e-06,2.3382915819046e-06,1.43059542832066e-06,-9.05911639586381e-07,4.44773011984053e-07,2.41637371775809e-06,1.90018358447227e-06,1.99919887843823e-06,-8.200980748507e-07,2.54343337187275e-07,4.51792135343749e-06,-2.50798612386434e-07,3.67874403779277e-06,7.4605460737486e-07,2.85369812591151e-06,2.0465408989449e-06,-1.28640968576382e-06,-2.53160743534164e-07,1.09000307149202e-06,1.97457769919856e-06,-7.94133068196835e-07,-1.52854598017833e-06,-3.67138652131498e-06,6.11353574450319e-06,9.45555917377506e-06,-1.89913680762162e-08,1.69017028900246e-06,-9.91534710926224e-07,-6.49551146327126e-07,-3.72787567480928e-07,5.14485534449202e-06,-1.64882460863195e-06,-7.15956448759093e-07,3.89452774781811e-07,-2.21782846695941e-06,1.70345357353387e-06,7.44214894566107e-07,2.41981799242308e-06,4.35562280431014e-06,-1.34292328214366e-06,-1.84741185269313e-05,3.2989226950882e-05,-4.97379523079116e-07,1.82848302091514e-06,9.75608916203455e-06,-6.0163856247499e-06,1.24232799237622e-06,1.29432761886208e-06,1.11205209561434e-05,7.30671404712384e-07,-5.44204136228855e-06,8.5453862271812e-06,7.89584148530486e-07,-1.41772014285672e-06,4.22213414358254e-06,-2.23796087229309e-06,-9.32230003864237e-07,8.3862051846239e-06,-5.40115798128058e-08,-1.26376768856865e-06,3.3552585365648e-07,-3.51780428693963e-08,-6.44575406972288e-08,-7.34738613441078e-08,1.23961579256567e-06,3.42338531241187e-07,-1.71866762131424e-06,1.8850776550693e-06
1.70128894924516e-06,-8.2541674086583e-07,1.8488134989698e-06,-3.88911764095432e-07,-2.28187300943393e-06,2.47867244924765e-06,1.59721669381452e-06,-9.30472431030947e-07,6.50208968702465e-07,2.39687724527157e-06,2.16686567973683e-06,1.94985798443323e-06,-6.98614573965307e-07,2.50991538433851e-07,4.64530063108241e-06,-2.77618767557348e-07,3.88418181863026e-06,7.43383654111422e-07,2.8744228799141e-06,2.06901529593042e-06,-1.27113862504335e-06,-2.74221955688947e-07,1.1663325212618e-06,1.94769333961193e-06,-6.87722296764533e-07,-1.55777751702115e-06,-3.43693790355856e-06,5.85932399099586e-06,9.34286857594473e-06,1.76231706370344e-07,1.74818368262722e-06,-1.01736514034114e-06,-6.17046783579986e-07,-3.85022506762522e-07,5.08649009464776e-06,-1.65807407657845e-06,-6.12171229230051e-07,3.26781755864874e-07,-2.1495474771651e-06,1.6703938846117e-06,7.1590628018192e-07,2.42972444508335e-06,4.27557627902254e-06,-1.28823100551606e-06,-1.84069600862687e-05,3.27605867911249e-05,-5.37223579695828e-07,1.8789665555096e-06,9.18149663368203e-06,-5.57354026326708e-06,1.15584507707238e-06,1.30239787245284e-06,1.13200422503681e-05,6.95568243575821e-07,-5.64203973108775e-06,8.71884894178875e-06,9.14504366213129e-07,-1.42636834452403e-06,4.18234007480024e-06,-2.1801852634331e-06,-7.19293165959763e-07,8.1601205079806e-06,-3.27508919012479e-09,-1.27826506283753e-06,3.60857141177252e-07,-4.8096329937631e-08,-3.67293796067349e-08,-7.70103816835371e-08,1.26143299152817e-06,3.25888264873707e-07,-1.65870972077775e-06,1.84445636224884e-06
1.87583665288966e-06,-8.39376641511793e-07,1.95499506978126e-06,-3.95059338603971e-07,-2.51519088535305e-06,2.61522819490605e-06,1.75333896657117e-06,-9.5070846484375e-07,8.51128910290965e-07,2.3771259673956e-06,2.4326195302282e-06,1.89960848698803e-06,-5.78357576593425e-07,2.47493119500707e-07,4.77274852120489e-06,-3.04531316386388e-07,4.08625591233742e-06,7.4034520588454e-07,2.89128433881491e-06,2.0888640247329e-06,-1.25549769821156e-06,-2.95086488497355e-07,1.24386565483497e-06,1.91951035760797e-06,-5.85309981824589e-07,-1.58518917411514e-06,-3.19957822358684e-06,5.6012803341757e-06,9.22155009995578e-06,3.70677700738661e-07,1.80509787081929e-06,-1.04150243605641e-06,-5.86752494250637e-07,-3.97381748969415e-07,5.02949755094257e-06,-1.66133724941451e-06,-5.0905044014263e-07,2.64549810274489e-07,-2.08381202699902e-06,1.6361032235204e-06,6.88343038914962e-07,2.43704207621522e-06,4.19071045158232e-06,-1.23298189705273e-06,-1.8295462942615e-05,3.24637876079602e-05,-5.75998879026328e-07,1.92662889198422e-06,8.61325985901484e-06,-5.13434197608995e-06,1.07314028389268e-06,1.3072821671079e-06,1.15058795793997e-05,6.55475306753493e-07,-5.83119285010297e-06,8.87888557498665e-06,1.03577651548313e-06,-1.43351006665172e-06,4.14035465507413e-06,-2.12380772204321e-06,-5.25669526210715e-07,7.93834769695869e-06,4.87030365074588e-08,-1.29234961864839e-06,3.87086087303343e-07,-6.11704828309164e-08,-8.14852299185851e-09,-8.03581471294292e-08,1.28050222925245e-06,3.08797316936046e-07,-1.60034291229962e-06,1.80390734571967e-06
2.04682903178005e-06,-8.54026510016278e-07,2.05864305579854e-06,-4.01428230273299e-07,-2.74442532039854e-06,2.74761529937582e-06,1.89924750755196e-06,-9.66915298573353e-07,1.04741391535214e-06,2.35713384710425e-06,2.69662758380831e-06,1.84853416946719e-06,-4.5956274740668e-07,2.43850228794653e-07,4.8998615850058e-06,-3.31524991774942e-07,4.28468095350871e-06,7.36943019255253e-07,2.9044432960974e-06,2.10618059675679e-06,-1.2395366382532e-06,-3.1570499729204e-07,1.32262235558907e-06,1.89002285930852e-06,-4.86943225347057e-07,-1.61076738467609e-06,-2.96004288226618e-06,5.34025555169343e-06,9.09197302412229e-06,5.64113363417102e-07,1.86098607778239e-06,-1.06410146182677e-06,-5.58528664688603e-07,-4.0982759324719e-07,4.97485757870258e-06,-1.65907388346462e-06,-4.06817932480296e-07,2.02905915292198e-07,-2.02038140136987e-06,1.60069169948919e-06,6.61572091475715e-07,2.44180315694789e-06,4.10149824099787e-06,-1.17737361861559e-06,-1.81392802606892e-05,3.20995346975857e-05,-6.1354427376107e-07,1.97140040059182e-06,8.05319687491474e-06,-4.70001710876557e-06,9.94319322225138e-07,1.30902870797827e-06,1.16777472712068e-05,6.10702461646346e-07,-6.00927452557719e-06,9.02565287693417e-06,1.15307224966237e-06,-1.43918545649366e-06,4.09633886135941e-06,-2.06898445639744e-06,-3.51707852167226e-07,7.72162201517317e-06,1.01919738916748e-07,-1.30603443837575e-06,4.14181885923889e-07,-7.43935538897932e-08,2.12489448171716e-08,-8.35224427635901e-08,1.29715284048888e-06,2.91138910589662e-07,-1.54319441110455e-06,1.76348377639102e-06
2.21401790157452e-06,-8.69301299363784e-07,2.15957736200113e-06,-4.07978001870113e-07,-2.96883810768455e-06,2.87550975686934e-06,2.03524127625449e-06,-9.79391040516713e-07,1.2389478839705e-06,2.33691276740253e-06,2.95808528304177e-06,1.79671795562839e-06,-3.4245625672184e-07,2.40064467248541e-07,5.02623922238938e-06,-3.58585664744141e-07,4.47918616635888e-06,7.33179226335891e-07,2.91406424024411e-06,2.12106411434437e-06,-1.2233085658981e-06,-3.36028683337545e-07,1.4026193976442e-06,1.85922358221868e-06,-3.92651129501852e-07,-1.6345052173466e-06,-2.71908083562882e-06,5.07710346060961e-06,8.95452888025815e-06,7.56312890878481e-07,1.91592396545756e-06,-1.08532307182553e-06,-5.32233107060779e-07,-4.22323079677544e-07,4.9235248354951e-06,-1.65175555335347e-06,-3.05689833416214e-07,1.41990721934805e-07,-1.95901598286293e-06,1.56426877079756e-06,6.35636342021383e-07,2.44404884023119e-06,4.00842179898589e-06,-1.1216046259417e-06,-1.79383787321627e-05,3.16689000151085e-05,-6.49704609670091e-07,2.01322114044849e-06,7.50307982104146e-06,-4.27176573684667e-06,9.19463778491605e-07,1.30769809428212e-06,1.18353886579591e-05,5.61565941397934e-07,-6.17608898203061e-06,9.15933844342969e-06,1.26608206557946e-06,-1.44343653859873e-06,4.05044993748074e-06,-2.01584900161893e-06,-1.97686912775544e-07,7.51060725014674e-06,1.56369459393658e-07,-1.31933076535378e-06,4.42103512622906e-07,-8.77563711311315e-08,5.14224115600331e-08,-8.65083710293884e-08,1.31171050455407e-06,2.72984650120002e-07,-1.48690065003051e-06,1.72323401609282e-06
2.3771724401015e-06,-8.85135170708976e-07,2.25762794636736e-06,-4.1466914100153e-07,-3.18771294302586e-06,2.99860854615898e-06,2.16163054185662e-06,-9.88434307662019e-07,1.42561733545308e-06,2.31647235823311e-06,3.21620621911403e-06,1.74424155855472e-06,-2.2725407467165e-07,2.36136841184465e-07,5.15148601564051e-06,-3.85696239438467e-07,4.66951667820046e-06,7.29054393652397e-07,2.92031390978372e-06,2.13361834588038e-06,-1.2068700571868e-06,-3.56009638071203e-07,1.48387084710908e-06,1.82710365001514e-06,-3.0244503400326e-07,-1.65640218144095e-06,-2.47745035799035e-06,4.81267579530211e-06,8.80962904515157e-06,9.47058515544074e-07,1.96998873903805e-06,-1.10533294190621e-06,-5.07722326301842e-07,-4.34832196823746e-07,4.87642165588815e-06,-1.63986260028627e-06,-2.05873958583754e-07,8.19362666880807e-08,-1.89947942619325e-06,1.52694258080523e-06,6.10574649879005e-07,2.44382893185006e-06,3.91196998754075e-06,-1.06587303090195e-06,-1.76930416422465e-05,3.11733188725816e-05,-6.84331635632227e-07,2.05204105378993e-06,6.96462682760312e-06,-3.85075583669915e-06,8.48631115703242e-07,1.30336299030905e-06,1.19785764981401e-05,5.08386881323134e-07,-6.33147163867743e-06,9.28015934283902e-06,1.37451691531737e-06,-1.44630718184719e-06,4.00284105045293e-06,-1.96451189613387e-06,-6.38137309488037e-08,7.30589182255216e-06,2.12044046138498e-07,-1.33224803832395e-06,4.70799642560599e-07,-1.01247507651975e-07,8.23267547559286e-08,-8.93207451580813e-08,1.3244948021753e-06,2.54404181603804e-07,-1.43111017703348e-06,1.68320151171292e-06
2.53608022456673e-06,-9.01461935319345e-07,2.35263556538291e-06,-4.21463280045399e-07,-3.40035873346496e-06,3.1166309870051e-06,2.27873470003474e-06,-9.94342332523572e-07,1.60731133346641e-06,2.29581984439769e-06,3.47022699529698e-06,1.69118515974302e-06,-1.14161295253769e-07,2.32067722162336e-07,5.27521405743644e-06,-4.12836584406875e-07,4.85543477884596e-06,7.24567600537963e-07,2.92335989975777e-06,2.143950806744e-06,-1.19028117995816e-06,-3.7560118369812e-07,1.56638847575276e-06,1.7936523747582e-06,-2.16318850982713e-07,-1.67646395862779e-06,-2.23591478082936e-06,4.54781721480066e-06,8.65770229195849e-06,1.13614098488481e-06,2.02325827589882e-06,-1.12430038968628e-06,-4.84852716928231e-07,-4.4732007016878e-07,4.83443102631445e-06,-1.6238811053235e-06,-1.07569258441657e-07,2.28657486851868e-08,-1.84154070197698e-06,1.48881934728775e-06,5.8642182011319e-07,2.4412015977485e-06,3.81263589124002e-06,-1.01037548423443e-06,-1.74038695438618e-05,3.06145843798958e-05,-7.17284883436416e-07,2.08782011125526e-06,6.43949420011133e-06,-3.43811765291811e-06,7.81854813610285e-07,1.29610770944365e-06,1.21071133886408e-05,4.51489921013393e-07,-6.47528985736883e-06,9.38836077248829e-06,1.47810970528152e-06,-1.4478430646459e-06,3.95366102375053e-06,-1.91506058957972e-06,4.9777822713999e-08,7.10798561228094e-06,2.68932653054068e-07,-1.34479394493644e-06,5.00208668960434e-07,-1.14853289101461e-07,1.13912407181912e-07,-9.19639965120862e-08,1.33581691240203e-06,2.35464883019888e-07,-1.37548634639959e-06,1.64342473277983e-06
2.69054815981323e-06,-9.18215487108005e-07,2.44445248460321e-06,-4.28323399830328e-07,-3.6061127783205e-06,3.22931997263616e-06,2.3868802930656e-06,-9.9740922038881e-07,1.78392153788995e-06,2.27495991759621e-06,3.71941177566112e-06,1.63762711320734e-06,-3.37149764532564e-09,2.27856814446645e-07,5.39704524063083e-06,-4.39983501530883e-07,5.03672110224524e-06,7.19716537868539e-07,2.92336932950607e-06,2.15217185392155e-06,-1.17360549826361e-06,-3.94758206810175e-07,1.65018217810978e-06,1.75885711212485e-06,-1.342494904438e-07,-1.69470207458287e-06,-1.99523824747148e-06,4.2833604877624e-06,8.49919230718214e-06,1.32335994426618e-06,2.07581030853689e-06,-1.14239721629765e-06,-4.63481681962662e-07,-4.59753130324631e-07,4.79838972702422e-06,-1.60429994314535e-06,-1.0965293447541e-08,-3.51066382186878e-08,-1.78497599855321e-06,1.450002807982e-06,5.63208609332028e-07,2.43623300802487e-06,3.71091437428469e-06,-9.55306083637444e-07,-1.70717784955342e-05,2.99948396205361e-05,-7.48432511700319e-07,2.12052840829869e-06,5.92926893438289e-06,-3.03493829027696e-06,7.19144644336639e-07,1.28602771168676e-06,1.22208321793668e-05,3.91201876687267e-07,-6.60744366741054e-06,9.48421476296205e-06,1.57661666930134e-06,-1.44809163579455e-06,3.90305418771681e-06,-1.8675596332289e-06,1.43028076745944e-07,6.91731755253115e-06,3.27021618434089e-07,-1.35697448587366e-06,5.30258822044974e-07,-1.28557839291511e-07,1.46125468665028e-07,-9.44420970683926e-08,1.34597746561347e-06,2.16231584761966e-07,-1.31970978773664e-06,1.60393715266796e-06
2.8404032868964e-06,-9.35330221899383e-07,2.53294314979835e-06,-4.35214016056999e-07,-3.80434380686559e-06,3.33644306991114e-06,2.48639922869912e-06,-9.97924355535989e-07,1.95534238123522e-06,2.25389463542994e-06,3.96305651047648e-06,1.58364367199539e-06,1.04933847550192e-07,2.23503130927501e-07,5.51661348827798e-06,-4.67110733264384e-07,5.21317571067949e-06,7.144976273236e-07,2.9205075820921e-06,2.15839380070278e-06,-1.1569100426754e-06,-4.13437482067919e-07,1.73526037820793e-06,1.72270318159443e-06,-5.61973729442054e-08,-1.71113352168727e-06,-1.75618154006645e-06,4.02012191452437e-06,8.33455518105461e-06,1.50852423597086e-06,2.12772167457289e-06,-1.15979659345238e-06,-4.43468667288452e-07,-4.72099259155496e-07,4.76908167868519e-06,-1.58160788542559e-06,8.37582648267603e-08,-9.18758248831132e-08,-1.72957047165634e-06,1.41059372496135e-06,5.4096174352237e-07,2.42899692004611e-06,3.60729969272486e-06,-9.00855312751894e-07,-1.66979959011121e-05,2.93165676438362e-05,-7.77652107558157e-07,2.15014621328153e-06,5.43546159871407e-06,-2.64225656153284e-06,6.6048707771921e-07,1.27322901745382e-06,1.23195964029213e-05,3.27850485471253e-07,-6.72786646557069e-06,9.56801894329695e-06,1.66981860513591e-06,-1.44710206927457e-06,3.85116038566196e-06,-1.82205119550751e-06,2.15952235779059e-07,6.73423404314407e-06,3.86294314369127e-07,-1.36879404388393e-06,5.60868388330206e-07,-1.4234316380215e-07,1.78907862833295e-07,-9.67584979000741e-08,1.35526456754897e-06,1.96766321500562e-07,-1.26348063760826e-06,1.56476727294442e-06
2.98549346638558e-06,-9.52741439661736e-07,2.61798481698817e-06,-4.42101348206886e-07,-3.99445484729199e-06,3.43779347972747e-06,2.57762719570576e-06,-9.96170953790854e-07,2.12147136859889e-06,2.232623349961e-06,4.20049284342998e-06,1.52930873823974e-06,2.10585921529993e-07,2.19004978224091e-07,5.63356690557319e-06,-4.94189008425096e-07,5.38461907157533e-06,7.08906160440427e-07,2.9149371266279e-06,2.16273005728754e-06,-1.14026524238309e-06,-4.31597983395495e-07,1.82163040627772e-06,1.68517387098851e-06,1.78929693166261e-08,-1.72578033915784e-06,-1.51949803489113e-06,3.75889704602358e-06,8.16425688518912e-06,1.69145212385543e-06,2.17906764041726e-06,-1.17667200861885e-06,-4.24676105058373e-07,-4.84327911815833e-07,4.74723149298317e-06,-1.55629063294237e-06,1.76432108539593e-07,-1.47345939863681e-07,-1.67511983178682e-06,1.37068945118807e-06,5.19703945511053e-07,2.41957420507567e-06,3.50228317125386e-06,-8.47209014290825e-07,-1.62840540289548e-05,2.85825793971454e-05,-8.04831438365862e-07,2.17666396805227e-06,4.95949963922897e-06,-2.26105813213461e-06,6.05845813256178e-07,1.25782754227002e-06,1.24033007305688e-05,2.61763221511916e-07,-6.83652568256834e-06,9.6400953742455e-06,1.75752196443926e-06,-1.4449252099289e-06,3.79811516212596e-06,-1.77855592526184e-06,2.68640718749312e-07,6.5589981860609e-06,4.46730963476357e-07,-1.38025545580735e-06,5.91946030738615e-07,-1.56189271355574e-07,2.12197537719014e-07,-9.89160841361708e-08,1.36395200861919e-06,1.77128116714158e-07,-1.20652051904695e-06,1.52593869034939e-06
3.1256879352921e-06,-9.70385726185541e-07,2.6994681420445e-06,-4.48953471139177e-07,-4.17588589466714e-06,3.53319085054426e-06,2.66090227580141e-06,-9.92424758043494e-07,2.28220950142821e-06,2.2111426680919e-06,4.43109171405532e-06,1.47469363979649e-06,3.13429047075222e-07,2.14359951350529e-07,5.74756983800185e-06,-5.21186126618672e-07,5.55089292356336e-06,7.02936456268367e-07,2.90681643546749e-06,2.16529430341038e-06,-1.12374481392106e-06,-4.49201180555681e-07,1.90929882321858e-06,1.64625054700496e-06,8.80922053323106e-08,-1.7386691561657e-06,-1.28592984213911e-06,3.50045676784329e-06,7.9887707561005e-06,1.87197145317388e-06,2.22992131107494e-06,-1.19319627509888e-06,-4.06970260270519e-07,-4.96410213534492e-07,4.73349825794353e-06,-1.52882767417915e-06,2.66897746073273e-07,-2.01430335239224e-07,-1.62143175983882e-06,1.33038356341407e-06,4.99453970264454e-07,2.40805232452821e-06,3.39635095194356e-06,-7.9454739716945e-07,-1.58317812671526e-05,2.7795999695723e-05,-8.29869144642828e-07,2.20008224220107e-06,4.50272117218211e-06,-1.89227100310272e-06,5.55162438797484e-07,1.23994835856457e-06,1.24718714639611e-05,1.93266182235327e-07,-6.93342340233902e-06,9.70078945081316e-06,1.83955978704369e-06,-1.44161350737965e-06,3.74405014036052e-06,-1.73707415911396e-06,3.01259215518786e-07,6.39178979992472e-06,5.08308422950306e-07,-1.3913600877534e-06,6.23391209911774e-07,-1.70074332436883e-07,2.45928708857055e-07,-1.00917146566685e-07,1.37229767104076e-06,1.57372801652553e-07,-1.14857425587597e-06,1.48747020586535e-06
3.26087773750524e-06,-9.88201311042865e-07,2.77729773048653e-06,-4.55740449683277e-07,-4.34811634744523e-06,3.62248193767817e-06,2.7365637490469e-06,-9.86952872768179e-07,2.4374618240659e-06,2.18944644553968e-06,4.65426666675009e-06,1.41986693687311e-06,4.13321123131196e-07,2.09564937962121e-07,5.85830481978718e-06,-5.48067081235208e-07,5.7118610264655e-06,6.96582036498057e-07,2.89629900816662e-06,2.16619969945802e-06,-1.1074256028975e-06,-4.66211319168767e-07,1.99827167402239e-06,1.60591288667954e-06,1.54485440610412e-07,-1.74983070466941e-06,-1.05620418291595e-06,3.24554382528134e-06,7.80857500404896e-06,2.04991976048269e-06,2.28035314031695e-06,-1.20954061237996e-06,-3.9022197623939e-07,-5.08319031202419e-07,4.7284696765036e-06,-1.49968900231806e-06,3.55007931900324e-07,-2.54051562768881e-07,-1.5683271439289e-06,1.28976556528349e-06,4.80226646301703e-07,2.39452476346548e-06,3.28998182055616e-06,-7.43044075302981e-07,-1.53432911405479e-05,2.69602512906025e-05,-8.52675365514716e-07,2.22041164272742e-06,4.06636930703968e-06,-1.53676135503151e-06,5.08357217017596e-07,1.21972489188703e-06,1.25252670699599e-05,1.22683041217889e-07,-7.01859691779736e-06,9.75046886918152e-06,1.91579247315795e-06,-1.43722093995649e-06,3.68909356551429e-06,-1.69758743490406e-06,3.14048505741638e-07,6.23270615959745e-06,5.70999933926874e-07,-1.40210791220251e-06,6.55094705829452e-07,-1.83974874022359e-07,2.80032142545754e-07,-1.02763369827253e-07,1.38054214279558e-06,1.37552870401745e-07,-1.08941131300865e-06,1.44937597503938e-06
3.39097602532262e-06,-1.00612839906408e-06,2.85139264541066e-06,-4.62434456438753e-07,-4.51066719189282e-06,3.7055411008721e-06,2.8049510831764e-06,-9.80012733186986e-07,2.58713808749696e-06,2.16752581552388e-06,4.86947686643943e-06,1.36489426139922e-06,5.1013400144314e-07,2.04616132006788e-07,5.96547439404487e-06,-5.74794220650128e-07,5.86740978229812e-06,6.89835816716995e-07,2.88353251251778e-06,2.16555814234724e-06,-1.09138737794254e-06,-4.82595682136105e-07,2.08855465968372e-06,1.56413923153537e-06,2.17171383369231e-07,-1.75929930792178e-06,-8.31030033477977e-07,2.99486984538405e-06,7.62415026567149e-06,2.22514435251019e-06,2.33043054432309e-06,-1.22587380156826e-06,-3.74307317610632e-07,-5.20029020763655e-07,4.73265672987519e-06,-1.46933185075459e-06,4.40627069082774e-07,-3.05141296851956e-07,-1.51564113432722e-06,1.24892066253297e-06,4.62032920741802e-07,2.37909042993475e-06,3.18364511563272e-06,-6.92865136423248e-07,-1.48209691339395e-05,2.60790371015775e-05,-8.73172289059629e-07,2.2376726812536e-06,3.6515870160241e-06,-1.19532975600076e-06,4.65329997911426e-07,1.19729805926247e-06,1.25634787600266e-05,5.03340631582433e-08,-7.09211920503535e-06,9.7895226458632e-06,1.98610839065927e-06,-1.43180293656683e-06,3.63337095570246e-06,-1.66006023939767e-06,3.07324039971822e-07,6.08176342693953e-06,6.34774830973884e-07,-1.4124975831189e-06,6.8693923670135e-07,-1.97866008332802e-07,3.14435475657468e-07,-1.0445583692029e-07,1.38890754261333e-06,1.17717371734054e-07,-1.02882696034334e-06,1.41166569839073e-06
3.51591822697062e-06,-1.02410947302803e-06,2.92168686756017e-06,-4.69009872795769e-07,-4.66310292438213e-06,3.78227063314294e-06,2.8664030903768e-06,-9.71851204467791e-07,2.73115351894889e-06,2.14536925255259e-06,5.076229808583e-06,1.30983819015072e-06,6.03753800825441e-07,1.9950905655639e-07,6.06880278360828e-06,-6.01327446829201e-07,6.01744870874594e-06,6.82690311359773e-07,2.86865804985087e-06,2.16347957179515e-06,-1.07571257725748e-06,-4.98324830381392e-07,2.18015322617539e-06,1.52090705423476e-06,2.76261445506977e-07,-1.76711234980346e-06,-6.11095037369817e-07,2.74911286923792e-06,7.43597721904694e-06,2.3975023686368e-06,2.38021760403798e-06,-1.24236141334477e-06,-3.59108112792791e-07,-5.3151665203064e-07,4.7464890142923e-06,-1.43819763019117e-06,5.23631574951954e-07,-3.54640202243129e-07,-1.46322401769581e-06,1.20792960923963e-06,4.44879904172242e-07,2.36185302895583e-06,3.07779872705076e-06,-6.44168243367871e-07,-1.42674574248154e-05,2.51563207221927e-05,-8.91294621703658e-07,2.25189560083313e-06,3.25941255421433e-06,-8.68707732341329e-07,4.25961249984314e-07,1.17281535765618e-06,1.25865311019862e-05,-2.34648213730571e-08,-7.15409929514244e-06,9.81836016835608e-06,2.05042431653882e-06,-1.42541630692623e-06,3.57700578673756e-06,-1.6244419008539e-06,2.81475232874879e-07,5.9388987741498e-06,6.99598209377635e-07,-1.4225265052202e-06,7.18800169870675e-07,-2.11721692230596e-07,3.49063567505362e-07,-1.05995049663905e-07,1.39759655564252e-06,9.79118369440217e-08,-9.66643164340554e-07,1.37434485047287e-06
3.63566207452392e-06,-1.04208956583946e-06,2.98812969840369e-06,-4.75443372978208e-07,-4.80503320635745e-06,3.85260091530753e-06,2.92125723137528e-06,-9.62703806220227e-07,2.86942968169027e-06,2.12296267101238e-06,5.27408370567948e-06,1.25475815029589e-06,6.94081154305617e-07,1.94238595500125e-07,6.16803739196741e-06,-6.27624450089854e-07,6.16191074790735e-06,6.7513784860013e-07,2.8518095488778e-06,2.16007133191713e-06,-1.0604860067601e-06,-5.13372821054056e-07,2.27307257436435e-06,1.47619352330202e-06,3.31878782709131e-07,-1.77330973449357e-06,-3.97062676018598e-07,2.50891537433876e-06,7.24453428257399e-06,2.56686083065075e-06,2.42977482677907e-06,-1.25916508524524e-06,-3.44512399735182e-07,-5.42760213074812e-07,4.77031086033987e-06,-1.40670919883259e-06,6.03910198272364e-07,-4.0249774855178e-07,-1.41094191463036e-06,1.16686862131022e-06,4.28770910834717e-07,2.34292041962735e-06,2.97288719341135e-06,-5.97101776428197e-07,-1.36856376590008e-05,2.41963053171014e-05,-9.06989972494828e-07,2.26312016393866e-06,2.8907754363619e-06,-5.57554708133384e-07,3.90113197158814e-07,1.14642991184489e-06,1.25944826353935e-05,-9.84028792193474e-08,-7.2046825197952e-06,9.83741024958806e-06,2.10868571147323e-06,-1.4181191868846e-06,3.52012014671661e-06,-1.59066853722516e-06,2.36964393388232e-07,5.80397322263859e-06,7.65430558105616e-07,-1.43219089730418e-06,7.50546318005965e-07,-2.2551501244156e-07,3.83838879237102e-07,-1.07380964466832e-07,1.40679167675498e-06,7.81782417676498e-08,-9.02709215059394e-07,1.33741494563649e-06
3.75018748885178e-06,-1.06001650114147e-06,3.0506860964698e-06,-4.81713990789222e-07,-4.93611424456141e-06,3.91649039246642e-06,2.96984904718516e-06,-9.52794057486777e-07,3.00189540801975e-06,2.10028955775572e-06,5.46264953522995e-06,1.19971035423317e-06,7.81031386131687e-07,1.88799033555798e-07,6.26295011776173e-06,-6.53640978300551e-07,6.30075240048633e-06,6.67170790977412e-07,2.83311329127857e-06,2.15543759226217e-06,-1.04579448675186e-06,-5.27717401719623e-07,2.36731759595155e-06,1.4299761529473e-06,3.8415728498698e-07,-1.77793335424637e-06,-1.89569692710473e-07,2.27488275243391e-06,7.0502954223137e-06,2.73309667347565e-06,2.47915893246867e-06,-1.27644179847234e-06,-3.30414779274183e-07,-5.53739796717642e-07,4.80437833981087e-06,-1.37526855379334e-06,6.81364276912719e-07,-4.48671977111628e-07,-1.35867730484062e-06,1.12580935170755e-06,4.13705490890869e-07,2.32240396338918e-06,2.86933990936191e-06,-5.51804030358513e-07,-1.30786118580178e-05,2.32034109850009e-05,-9.2021914922637e-07,2.27139540274647e-06,2.54649297717829e-06,-2.62455321752735e-07,3.57631045217579e-07,1.11829949376846e-06,1.25874264545815e-05,-1.74175371617117e-07,-7.24405060479947e-06,9.84712015555433e-06,2.16086682686926e-06,-1.409970999152e-06,3.46283531927173e-06,-1.55866497977764e-06,1.74325239315161e-07,5.6767751989682e-06,8.3222737718765e-07,-1.4414858537701e-06,7.82040813689051e-07,-2.39218490745393e-07,4.18681876901926e-07,-1.08613042583836e-07,1.41665465788454e-06,5.85550003481301e-08,-8.36902096538003e-07,1.30087383755226e-06
3.85949632202167e-06,-1.07784110195638e-06,3.10933693926387e-06,-4.87803168696774e-07,-5.05604988293096e-06,3.97392537020132e-06,3.01251170183201e-06,-9.42332937327801e-07,3.12848778958193e-06,2.07733113753801e-06,5.64159274077429e-06,1.14474776015121e-06,8.64534618409255e-07,1.83184103851357e-07,6.35333847212952e-06,-6.79331138234502e-07,6.43395368422518e-06,6.58781758216477e-07,2.81268757189738e-06,2.14967883128268e-06,-1.03172644356344e-06,-5.41340179433718e-07,2.46289274162506e-06,1.38223352408178e-06,4.33240534018509e-07,-1.78102658681425e-06,1.07762411687943e-08,2.04758219605659e-06,6.85372809174201e-06,2.89609674725163e-06,2.5284226367353e-06,-1.29434309357826e-06,-3.16716679631015e-07,-5.64437271703069e-07,4.8488572646691e-06,-1.34425501518853e-06,7.55907927464973e-07,-4.93129226452867e-07,-1.30632938330672e-06,1.08481892137252e-06,3.99679454860039e-07,2.3004178709161e-06,2.76756945320431e-06,-5.08402480753666e-07,-1.24496814633784e-05,2.21822505795799e-05,-9.30956364019738e-07,2.27677933269872e-06,2.22726739999369e-06,1.60828762569829e-08,3.28344281628999e-07,1.08858552847233e-06,1.25654907290386e-05,-2.5048428308253e-07,-7.27242158417719e-06,9.84795457508311e-06,2.20697064587393e-06,-1.40103242556566e-06,3.40527227176062e-06,-1.52834660697416e-06,9.41609972984349e-08,5.55702475089086e-06,8.99938802007611e-07,-1.45040540972846e-06,8.13142056259179e-07,-2.52804402997573e-07,4.53511455080104e-07,-1.09690313709045e-07,1.42732615605893e-06,3.90769898422061e-08,-7.6912660734793e-07,1.26471604866518e-06
3.9636119612843e-06,-1.09551736745327e-06,3.16407920613222e-06,-4.93694788883966e-07,-5.16459238762519e-06,4.02491962875202e-06,3.04957562183312e-06,-9.31518455926644e-07,3.24915321059198e-06,2.05406656985257e-06,5.81063458148947e-06,1.08992005544604e-06,9.44535809145583e-07,1.77387042358894e-07,6.43902649325197e-06,-7.04647726135619e-07,6.56151792018764e-06,6.49963849737216e-07,2.7906424947562e-06,2.14289138389342e-06,-1.01837144494784e-06,-5.54226763703447e-07,2.55980183025417e-06,1.33294605621403e-06,4.79280741158176e-07,-1.78263383916281e-06,2.03398641087984e-07,1.82754193906969e-06,6.65529132254057e-06,3.05575778169288e-06,2.57761441816454e-06,-1.31301418302118e-06,-3.03326535475365e-07,-5.74836240961529e-07,4.90382224786642e-06,-1.31402395347375e-06,8.27468161181567e-07,-5.35843821872948e-07,-1.25381425071402e-06,1.04395999990792e-06,3.86684894190979e-07,2.27707855409625e-06,2.66797004199737e-06,-4.67013131365052e-07,-1.18023244879917e-05,2.11376039336515e-05,-9.39189346572859e-07,2.27933863061892e-06,1.93368351898549e-06,2.77631342953489e-07,3.02068034529222e-07,1.05745210325116e-06,1.25288391387391e-05,-3.2703898485805e-07,-7.29004950615885e-06,9.84039450060761e-06,2.24702866178463e-06,-1.3913653860812e-06,3.34755203240304e-06,-1.49962104181703e-06,-2.85787753928893e-09,5.4443783240942e-06,9.68509252124537e-07,-1.45894261286987e-06,8.43704725191738e-07,-2.66245106145371e-07,4.88245378070062e-07,-1.10611451435685e-07,1.43892557781842e-06,1.97756048039824e-08,-6.99315239336719e-07,1.22893312563881e-06
4.06257880078735e-06,-1.11300261828853e-06,3.21492607914333e-06,-4.99375185965429e-07,-5.26154290772596e-06,4.06951385358873e-06,3.08136821748621e-06,-9.20535330955338e-07,3.36384840864587e-06,2.03047317526202e-06,5.96955312251131e-06,1.03527366088926e-06,1.02099472359399e-06,1.71400648672268e-07,6.51986545454716e-06,-7.29542583873426e-07,6.68347134894192e-06,6.40710864938204e-07,2.76707990325886e-06,2.13516705304616e-06,-1.00581968214684e-06,-5.66366881899025e-07,2.65804780892519e-06,1.28209680390401e-06,5.22437674416974e-07,-1.78280014722226e-06,3.87754117810882e-07,1.61525081782293e-06,6.45543398047554e-06,3.21198630129247e-06,2.62677826999195e-06,-1.33259295504207e-06,-2.90159886105844e-07,-5.84921989093225e-07,4.96925684986916e-06,-1.28490607786108e-06,8.9598492316064e-07,-5.76797734967366e-07,-1.20106494374257e-06,1.00329093026795e-06,3.7471020412952e-07,2.25250398821871e-06,2.57091611734335e-06,-4.27739948947529e-07,-1.11401708232699e-05,2.00743904831779e-05,-9.44919364151805e-07,2.27914827902665e-06,1.66620699562528e-06,5.21842081339292e-07,2.78604478080986e-07,1.02506499576386e-06,1.24776712033981e-05,-4.03556838691653e-07,-7.29722390549068e-06,9.82493599187634e-06,2.28110049659286e-06,-1.38103301925855e-06,3.28979594405007e-06,-1.47238968077908e-06,-1.15996344203309e-07,5.33843401524875e-06,1.03787711371153e-06,-1.46708960162269e-06,8.73580853333526e-07,-2.79513367951191e-07,5.22800734906928e-07,-1.11374858809206e-07,1.4515511127374e-06,6.78840122122726e-10,-6.27427826940717e-07,1.19351401709732e-06
4.15646158705889e-06,-1.13025761120598e-06,3.26190695859114e-06,-5.04833141298139e-07,-5.34675160204679e-06,4.10777488192854e-06,3.10821366697934e-06,-9.09554763836988e-07,3.47254154372115e-06,2.00652668863548e-06,6.11818384872842e-06,9.80851753473545e-07,1.09388583924963e-06,1.65217352744489e-07,6.59573436227845e-06,-7.53966976412674e-07,6.79986257273712e-06,6.31017519283922e-07,2.74209344028899e-06,2.12659278307526e-06,-9.94161404834009e-07,-5.77754464949346e-07,2.75763247100566e-06,1.22967225178256e-06,5.62877582709664e-07,-1.78157084197491e-06,5.63334057370096e-07,1.41115816097281e-06,6.25459319917961e-06,3.36469847472055e-06,2.67595343878934e-06,-1.35320889235496e-06,-2.77139399417007e-07,-5.94681420773521e-07,5.04505480360036e-06,-1.25720727248321e-06,9.61411053063116e-07,-6.1598021985126e-07,-1.14803131455163e-06,9.62865891697433e-07,3.63740114569108e-07,2.22681308840287e-06,2.47676106219244e-06,-3.90674388649582e-07,-1.04669759308538e-05,1.89976404532417e-05,-9.48161148384321e-07,2.27629117816307e-06,1.42518315555842e-06,7.48448803277523e-07,2.57744271530177e-07,9.91590734300746e-07,1.24122224818474e-05,-4.79763748414334e-07,-7.29426902687584e-06,9.80208880423701e-06,2.30927335989502e-06,-1.3700996578464e-06,3.23212579408345e-06,-1.44654904105347e-06,-2.44457800168251e-07,5.23873726389391e-06,1.10797445871752e-06,-1.47483768696615e-06,9.0262095122166e-07,-2.92582694862921e-07,5.57094403456753e-07,-1.11978762022895e-07,1.46527994495682e-06,-1.81886000322664e-08,-5.53450984738707e-07,1.15844546951589e-06
4.24534464370871e-06,-1.1472466237527e-06,3.30506738850255e-06,-5.1005985907736e-07,-5.42011743160303e-06,4.13979476756749e-06,3.13043274061803e-06,-8.98734310502215e-07,3.57521325136261e-06,1.98220153590946e-06,6.25641987722655e-06,9.26694305624035e-07,1.16319818325216e-06,1.5882928716781e-07,6.66654023778985e-06,-7.77871985756985e-07,6.91076181642371e-06,6.2087965389969e-07,2.71576873172675e-06,2.11725039086899e-06,-9.83486315302793e-07,-5.88387700941326e-07,2.85855613636214e-06,1.17566308757022e-06,6.00772133329897e-07,-1.77899130060087e-06,7.29666036414194e-07,1.21567402374678e-06,6.05319300196873e-06,3.5138198812787e-06,2.7251741434025e-06,-1.37498193594214e-06,-2.64194829905874e-07,-6.04102991425875e-07,5.13102226498593e-06,-1.23120892941326e-06,1.02371216600321e-06,-6.5338743183594e-07,-1.09467977155966e-06,9.22735094936501e-07,3.53755732416035e-07,2.20012510363264e-06,2.3858360485447e-06,-3.55895012051783e-07,-9.78659334100548e-06,1.79124649751224e-05,-9.48942729613987e-07,2.27085772658421e-06,1.21083634064463e-06,9.57267729294042e-07,2.3926801968614e-07,9.57195700040702e-07,1.23327646178683e-05,-5.55394667183566e-07,-7.28154279809135e-06,9.77237487669826e-06,2.33166134801177e-06,-1.35863079349037e-06,3.17466384842292e-06,-1.42199195130549e-06,-3.87387516214878e-07,5.14478696579188e-06,1.17872680327811e-06,-1.48217743659392e-06,9.30675171745104e-07,-3.05427654333105e-07,5.91043518342895e-07,-1.1242131032447e-07,1.48016862914437e-06,-3.68051712829007e-08,-4.77397353802311e-07,1.12371243577586e-06
4.32933098251646e-06,-1.16393751007766e-06,3.34446888801222e-06,-5.15048924542088e-07,-5.48158761950876e-06,4.16568967022179e-06,3.14834264428118e-06,-8.88217841132441e-07,3.67185765537573e-06,1.95747113040312e-06,6.3842117482357e-06,8.72838138762033e-07,1.22893510141525e-06,1.52228364617072e-07,6.73221818295125e-06,-8.01208916165283e-07,7.01626000690234e-06,6.10294436211353e-07,2.68818368526505e-06,2.107216350876e-06,-9.73882925086789e-07,-5.98269054971491e-07,2.96081729888349e-06,1.12006493766877e-06,6.3629738703934e-07,-1.77510680820818e-06,8.86314969034934e-07,1.02916973385818e-06,5.85164311389858e-06,3.65928518564279e-06,2.77446925366628e-06,-1.39802131220503e-06,-2.51262918363119e-07,-6.13176631591203e-07,5.22688095005759e-06,-1.20716866650445e-06,1.08286645352966e-06,-6.89022031811277e-07,-1.0409928930867e-06,8.82945003302274e-07,3.44734596976939e-07,2.17255903119009e-06,2.29844901726594e-06,-3.23467200206657e-07,-9.1029464806661e-06,1.68240256313164e-05,-9.47305179948297e-07,2.26294537068749e-06,1.0232697767294e-06,1.14819803883086e-06,2.22947745162228e-07,9.22045277534363e-07,1.22396052124785e-05,-6.30194065475824e-07,-7.25943556074002e-06,9.73632668515334e-06,2.3484045878078e-06,-1.34669302950076e-06,3.11753285049408e-06,-1.39860865821525e-06,-5.43876480033869e-07,5.05604196628567e-06,1.25005291154131e-06,-1.48909876433162e-06,9.57594503563573e-07,-3.18024188578911e-07,6.24565937993444e-07,-1.12700680379573e-07,1.4962536174035e-06,-5.51523409498836e-08,-3.99304676191135e-07,1.08929848968724e-06
4.40854131272534e-06,-1.18030172886346e-06,3.38018868763739e-06,-5.19796244635459e-07,-5.53115677374333e-06,4.18559857879237e-06,3.16225686953041e-06,-8.78135583138293e-07,3.76248332024907e-06,1.9323081845229e-06,6.5015667932984e-06,8.19316989804635e-07,1.2911139612027e-06,1.45406360319068e-07,6.79273123499969e-06,-8.23929705403471e-07,7.11646768800168e-06,5.99260549139253e-07,2.6594088957231e-06,2.09656163149612e-06,-9.65437872580752e-07,-6.0740525473171e-07,3.06441225242536e-06,1.06287905179589e-06,6.69632836133429e-07,-1.76996255172286e-06,1.03288402945261e-06,8.51978661794795e-07,5.65033795682027e-06,3.8010377238958e-06,2.82386190210132e-06,-1.42242432629692e-06,-2.38287238271124e-07,-6.21893666708919e-07,5.33227193056186e-06,-1.18532124322298e-06,1.13886440863522e-06,-7.22892778827281e-07,-9.86968921789346e-07,8.43538573012235e-07,3.36650749166689e-07,2.14423305338842e-06,2.2148837925807e-06,-2.93442963351466e-07,-8.42000032225184e-06,1.57375039053433e-05,-9.4330226663872e-07,2.25265812363938e-06,8.62465956784461e-07,1.32122197780458e-06,2.08548367233783e-07,8.86303055868949e-07,1.21330875051053e-05,-7.03916358764637e-07,-7.22836856904193e-06,9.69448546937381e-06,2.35966823738089e-06,-1.33435402871908e-06,3.06085605634375e-06,-1.37628793845419e-06,-7.12965607107094e-07,4.97192785766807e-06,1.32186465537161e-06,-1.49559103142864e-06,9.83231981807637e-07,-3.30349917015506e-07,6.57580707268846e-07,-1.1281518352528e-07,1.51355192559993e-06,-7.32144273742162e-08,-3.19234712999527e-07,1.0551862395125e-06
4.48311296453131e-06,-1.19631434454251e-06,3.41231937336906e-06,-5.24299971556782e-07,-5.56886566214993e-06,4.19968187934695e-06,3.17248504649927e-06,-8.68604241346199e-07,3.84711413001862e-06,1.90668503271654e-06,6.60854809969481e-06,7.66161589374798e-07,1.34976579425142e-06,1.38354999642806e-07,6.84807002382621e-06,-8.45987337045061e-07,7.21151380284931e-06,5.87778366119251e-07,2.62950814825871e-06,2.08535158211585e-06,-9.58235197534256e-07,-6.15807241988598e-07,3.16933471302524e-06,1.00411292330471e-06,7.00960522790174e-07,-1.76360375227689e-06,1.16901541315746e-06,6.8439712075673e-07,5.44965581521162e-06,3.93902901091773e-06,2.87336901142625e-06,-1.44827512190044e-06,-2.25217991674982e-07,-6.30246733785015e-07,5.44675982919807e-06,-1.16587943378526e-06,1.19170848462302e-06,-7.55014116135685e-07,-9.32621144160701e-07,8.04555506468471e-07,3.29474815888997e-07,2.1152639970545e-06,2.13539933396872e-06,-2.65860846985618e-07,-7.74173321465094e-06,1.46580708732216e-05,-9.37000018427495e-07,2.24010605455882e-06,7.28287554960751e-07,1.47640461825198e-06,1.95829185810185e-07,8.50130079884184e-07,1.20135898465483e-05,-7.76326288728731e-07,-7.18879226574878e-06,9.64739934134017e-06,2.36564136015389e-06,-1.32168246881988e-06,3.00475735463043e-06,-1.3549182781888e-06,-8.93650253521273e-07,4.89184398791122e-06,1.39406694136734e-06,-1.50164316603391e-06,1.00744390463757e-06,-3.42384424545932e-07,6.90008512921394e-07,-1.12763374430837e-07,1.5320619291227e-06,-9.09784305387966e-08,-2.37272018280028e-07,1.02135773408031e-06
