S1_D1_HbO,S1_D1_HbR,S1_D2_HbO,S1_D2_HbR,S1_D20_HbO,S1_D20_HbR,S2_D2_HbO,S2_D2_HbR,S2_D3_HbO,S2_D3_HbR,S2_D21_HbO,S2_D21_HbR,S3_D3_HbO,S3_D3_HbR,S3_D4_HbO,S3_D4_HbR,S3_D22_HbO,S3_D22_HbR,S4_D5_HbO,S4_D5_HbR,S4_D6_HbO,S4_D6_HbR,S4_D7_HbO,S4_D7_HbR,S4_D17_HbO,S4_D17_HbR,S4_D8_HbO,S4_D8_HbR,S4_D23_HbO,S4_D23_HbR,S5_D7_HbO,S5_D7_HbR,S5_D10_HbO,S5_D10_HbR,S5_D8_HbO,S5_D8_HbR,S5_D9_HbO,S5_D9_HbR,S5_D24_HbO,S5_D24_HbR,S6_D10_HbO,S6_D10_HbR,S6_D11_HbO,S6_D11_HbR,S6_D12_HbO,S6_D12_HbR,S6_D9_HbO,S6_D9_HbR,S6_D25_HbO,S6_D25_HbR,S7_D11_HbO,S7_D11_HbR,S7_D12_HbO,S7_D12_HbR,S7_D13_HbO,S7_D13_HbR,S7_D14_HbO,S7_D14_HbR,S7_D18_HbO,S7_D18_HbR,S7_D26_HbO,S7_D26_HbR,S8_D15_HbO,S8_D15_HbR,S8_D16_HbO,S8_D16_HbR,S8_D19_HbO,S8_D19_HbR,S8_D9_HbO,S8_D9_HbR,S8_D27_HbO,S8_D27_HbR
-2.44460006419733e-06,-8.78149963727942e-07,-2.58516326579381e-06,-7.32078275552801e-07,-1.53015512088e-06,-1.87385247423132e-06,-3.31370141057662e-06,-7.49837231149887e-07,2.66740433581737e-06,-5.54667192266198e-07,-6.64435056400103e-06,-2.6914473754088e-06,-1.68786387265089e-06,-8.61054494840018e-07,6.27413845398102e-07,-1.49133190674245e-06,3.82222690343478e-06,-1.66787960735097e-06,-1.28858442917112e-06,7.58326013074639e-07,2.93086288279317e-06,-1.18671265049973e-06,-1.22363494853207e-07,-1.78126594566385e-06,-3.12186365229529e-06,2.29487352951353e-07,4.47882615515231e-06,-1.02055624038701e-05,-7.20569064735982e-06,-1.82705557515327e-07,1.31365482663745e-06,-9.02626337553579e-07,3.06304507042254e-06,-1.84341506018039e-06,2.46140637674648e-06,-3.07625527025004e-06,-1.69570944717814e-07,-5.36701772745715e-07,4.08163444969524e-06,-2.48502768004381e-06,-2.26727111168584e-07,8.08671656600474e-08,1.14848433691884e-06,-2.00507388682696e-06,-1.50858697073318e-05,7.31031823262529e-06,-1.09980210825719e-07,2.87736368148245e-07,1.04676765521122e-05,-1.69236201837457e-05,5.47976533530762e-07,-3.75098111827819e-07,-2.70680320689414e-06,-2.36234296554308e-08,2.0902676695597e-06,-1.43167348684809e-06,-2.46534383567411e-06,7.46713369135999e-07,-2.24742413623913e-06,-5.79896459388521e-07,2.9006453515728e-07,-8.99280162517038e-06,1.61143230160265e-06,-1.35891660366743e-06,8.1673900632249e-07,6.98752582787697e-07,-1.67996387354835e-06,8.19433385837479e-08,4.13132652619235e-06,-3.81666704887884e-06,-1.14140120295118e-06,-4.77361293106252e-07
-2.56427142450995e-06,-8.83340302963499e-07,-2.64324677448356e-06,-7.28320416303603e-07,-1.71800829940406e-06,-1.86491082000723e-06,-3.39624654745412e-06,-7.54145236587855e-07,2.6284192837052e-06,-5.59431096182966e-07,-6.77296579535382e-06,-2.6902538692752e-06,-1.78821128480413e-06,-8.75003254958586e-07,5.40409572022812e-07,-1.50897890715894e-06,3.63750045876781e-06,-1.67224913813508e-06,-1.29446256418954e-06,7.65511312260511e-07,2.96018638151254e-06,-1.20490680110954e-06,-1.83064619980796e-07,-1.76884734812435e-06,-3.11297454130831e-06,1.70928742577511e-07,4.61540495697794e-06,-1.03635799587148e-05,-7.37887446166414e-06,-6.37638638614757e-08,1.22398914086055e-06,-9.27709228665586e-07,3.00691847999419e-06,-1.84913649593288e-06,2.10910602241428e-06,-2.79340312938164e-06,-2.67582873250341e-07,-4.81830134083495e-07,3.92947781022391e-06,-2.49384962204414e-06,-2.36375569722982e-07,9.17287810652538e-08,1.14406894225973e-06,-1.99128244720395e-06,-1.4498429633485e-05,6.91369454621347e-06,-1.19987702434053e-07,2.90747864716517e-07,1.05629898572664e-05,-1.70190842224346e-05,6.16355042331006e-07,-3.77421562362939e-07,-2.68005203382e-06,8.20425396630858e-09,2.05766850852431e-06,-1.33379209653952e-06,-2.57376589577661e-06,7.24238693831853e-07,-2.36015403843138e-06,-4.75171437704214e-07,2.78255901861225e-07,-8.76448350045933e-06,1.44385961757495e-06,-1.38208920112268e-06,7.00389114587356e-07,6.98718225974197e-07,-1.74943847257422e-06,7.47555553747495e-08,3.98987052555924e-06,-3.8280720398716e-06,-1.44198366629144e-06,-4.62384057843606e-07
-2.69012633939988e-06,-8.87211251218331e-07,-2.70306043649005e-06,-7.23451972097916e-07,-1.91166158030855e-06,-1.85483075339781e-06,-3.48195123061378e-06,-7.58435824603014e-07,2.58470169626608e-06,-5.64128741931024e-07,-6.90205656053313e-06,-2.68833224811056e-06,-1.89267976281408e-06,-8.88991046275908e-07,4.46721788613689e-07,-1.52489983546682e-06,3.44450532315414e-06,-1.67648559760723e-06,-1.3009036294766e-06,7.72031376764136e-07,2.99161813567373e-06,-1.22371306311787e-06,-2.44295343982715e-07,-1.7538043078978e-06,-3.10463772208253e-06,1.11492408649978e-07,4.73942507787679e-06,-1.05058351342248e-05,-7.54587339011053e-06,5.32706500605409e-08,1.12991761680611e-06,-9.5059525857248e-07,2.94891729325595e-06,-1.8540251438654e-06,1.75994144529005e-06,-2.51066491346375e-06,-3.67219537553533e-07,-4.25495188297173e-07,3.77572239317586e-06,-2.50221439996888e-06,-2.46973569626342e-07,1.02588889726518e-07,1.13833813200404e-06,-1.97596602384976e-06,-1.38966924612216e-05,6.50441228630108e-06,-1.30378646015216e-07,2.93948263046925e-07,1.06540748980686e-05,-1.71060116797518e-05,6.811961175691e-07,-3.80712750473069e-07,-2.65219766124041e-06,4.018758969816e-08,2.01712400469158e-06,-1.23084925588731e-06,-2.68290056607946e-06,6.99899021869415e-07,-2.47117205280825e-06,-3.67752201224811e-07,2.55903149840905e-07,-8.52128109967762e-06,1.26983950475559e-06,-1.40370651049446e-06,5.81617833196958e-07,7.00459672834631e-07,-1.81788055938355e-06,6.73523298585702e-08,3.84247888870719e-06,-3.836009227751e-06,-1.73840104672823e-06,-4.48077054373807e-07
-2.82177538468918e-06,-8.89754112206636e-07,-2.76434875885984e-06,-7.17467797048193e-07,-2.11056638093764e-06,-1.84360769656927e-06,-3.5705466624162e-06,-7.62707762367681e-07,2.53616764024033e-06,-5.68735912154288e-07,-7.03090132006996e-06,-2.6856540643328e-06,-2.00109547227385e-06,-9.03009139236176e-07,3.46759543932134e-07,-1.539121798327e-06,3.24367385551216e-06,-1.6805450864805e-06,-1.30793494463676e-06,7.77901723501263e-07,3.02522965113475e-06,-1.24309985957069e-06,-3.05866542718803e-07,-1.73610087489822e-06,-3.09639503463725e-06,5.09850443388551e-08,4.85068879127001e-06,-1.06318521423424e-05,-7.70616667901741e-06,1.67763198764573e-07,1.03173104101824e-06,-9.71117947464166e-07,2.88926591671768e-06,-1.8580587702573e-06,1.4151312894667e-06,-2.22891970747397e-06,-4.68174891641357e-07,-3.67855411304162e-07,3.62084796290533e-06,-2.51007975788691e-06,-2.58502516468935e-07,1.13434165770488e-07,1.13140201642835e-06,-1.95927646143256e-06,-1.32825197741556e-05,6.08420094606025e-06,-1.41175468816393e-07,2.97361055596908e-07,1.07403159855227e-05,-1.71842638501458e-05,7.42455083442469e-07,-3.84956140831715e-07,-2.62338287306142e-06,7.21142206292293e-08,1.96862095048076e-06,-1.12292183341856e-06,-2.79230576970361e-06,6.73686754287326e-07,-2.5797190826967e-06,-2.58176826426343e-07,2.21917508991153e-07,-8.26290715069921e-06,1.0900304014964e-06,-1.42381955188322e-06,4.60470528704643e-07,7.04091755452089e-07,-1.88496810142391e-06,5.97480753142697e-08,3.68933037626901e-06,-3.84027632765497e-06,-2.02919957334206e-06,-4.34597062499486e-07
-2.95880274128787e-06,-8.90964009803951e-07,-2.82684589287724e-06,-7.10365476473338e-07,-2.31415533541731e-06,-1.83124131241152e-06,-3.66174865627098e-06,-7.66959480499626e-07,2.48273230811898e-06,-5.7323000248555e-07,-7.1587666570446e-06,-2.6821944786395e-06,-2.11326870186088e-06,-9.17048377350675e-07,2.40958758157513e-07,-1.55167855868201e-06,3.03546024337018e-06,-1.68438480170448e-06,-1.31558201366453e-06,7.83141024282521e-07,3.06105857152244e-06,-1.2630297212546e-06,-3.67599922893147e-07,-1.71570617242701e-06,-3.08779988308306e-06,-1.0783657733585e-08,4.94908172402554e-06,-1.07412552522037e-05,-7.85922414978231e-06,2.79072926434643e-07,9.29725375099659e-07,-9.89130107615825e-07,2.82819184804538e-06,-1.86121582490846e-06,1.07588002143669e-06,-1.94906060424976e-06,-5.7013081603875e-07,-3.09078164677779e-07,3.46531547818145e-06,-2.51739722971637e-06,-2.70939182769743e-07,1.24251479625763e-07,1.12336889417988e-06,-1.94136326002192e-06,-1.26576967059015e-05,5.65473244927483e-06,-1.52401538291086e-07,3.01009916740168e-07,1.08211076492668e-05,-1.72537105604359e-05,8.00103829056794e-07,-3.90132708187871e-07,-2.59374557902562e-06,1.03778910323805e-07,1.91217407955837e-06,-1.01010480051552e-06,-2.90153937730493e-06,6.45595524910421e-07,-2.68504691329297e-06,-1.46992682138159e-07,1.75243563049375e-07,-7.98907377648954e-06,9.05100993333801e-07,-1.44248419329045e-06,3.36982690256949e-07,7.09718151334293e-07,-1.95038610626219e-06,5.1957336193934e-08,3.53060361133524e-06,-3.8406759730573e-06,-2.31295536051977e-06,-4.22100367688246e-07
-3.10076863875229e-06,-8.90839939151905e-07,-2.89027727575785e-06,-7.02145437145065e-07,-2.52184570024744e-06,-1.81773565011891e-06,-3.75525979531234e-06,-7.71189142335981e-07,2.42430928564754e-06,-5.77590520983182e-07,-7.28491305301729e-06,-2.67793242791014e-06,-2.22899439035544e-06,-9.31099219208935e-07,1.29779694982291e-07,-1.56261026752861e-06,2.82033766333912e-06,-1.68796332875666e-06,-1.32386851798289e-06,7.87771178687755e-07,3.09910668736695e-06,-1.28345896931814e-06,-4.29328931672527e-07,-1.69259486308581e-06,-3.07842067079281e-06,-7.39998019455366e-08,5.03457308653297e-06,-1.08337706624574e-05,-8.00450806799523e-06,3.86556377302653e-07,8.24200149017334e-07,-1.00450496752869e-06,2.76592448272614e-06,-1.86347556777658e-06,7.43372531121623e-07,-1.67199027563687e-06,-6.72758389901274e-07,-2.49339015527539e-07,3.30956355333133e-06,-2.52411187548204e-06,-2.84255737214352e-07,1.35027849731108e-07,1.1143442690886e-06,-1.92237246137814e-06,-1.20239248856702e-05,5.21761273564855e-06,-1.64081052982485e-07,3.04918542839192e-07,1.08958591040163e-05,-1.73142310677515e-05,8.54130918184535e-07,-3.96220135220292e-07,-2.5634182720786e-06,1.34984638958639e-07,1.84782589102133e-06,-8.92511085477151e-07,-3.01016197620638e-06,6.15620580927419e-07,-2.7864239372002e-06,-3.47528072318046e-08,1.14865489616515e-07,-7.69949534849968e-06,7.15726464251049e-07,-1.45976037933802e-06,2.11180932101959e-07,7.17430127789591e-07,-2.0138285575598e-06,4.39947788725628e-08,3.3664766707765e-06,-3.83701720916465e-06,-2.58828386260165e-06,-4.10741244003605e-07
-3.24721187255328e-06,-8.89384813459319e-07,-2.95436133149445e-06,-6.92811060632546e-07,-2.73304274898983e-06,-1.80309927662837e-06,-3.85077163593315e-06,-7.75394712578777e-07,2.36080992502395e-06,-5.81799573141573e-07,-7.40860068463672e-06,-2.67285075771704e-06,-2.34805269021188e-06,-9.45151774793561e-07,1.37043436571205e-08,-1.57196316796463e-06,2.59879547542211e-06,-1.69124091680032e-06,-1.33281631177526e-06,7.91817369076814e-07,3.13933816623553e-06,-1.30433739925102e-06,-4.90899575710312e-07,-1.66674759670236e-06,-3.06784406696787e-06,-1.3884410114911e-07,5.10721506524783e-06,-1.09092273311507e-05,-8.1414752988538e-06,4.89571132681249e-07,7.15456998030746e-07,-1.01713714094135e-06,2.70269393197301e-06,-1.86481821162139e-06,4.18769093185783e-07,-1.39861682050556e-06,-7.75719247697449e-07,-1.88821018068107e-07,3.15400520947936e-06,-2.5301621138665e-06,-2.98419785691912e-07,1.45750394503659e-07,1.10442993438797e-06,-1.90244561664898e-06,-1.138281635734e-05,4.7743740339226e-06,-1.76238921142243e-07,3.09110490585158e-07,1.0963998687807e-05,-1.73657150630236e-05,9.04541626492924e-07,-4.03193025673287e-07,-2.53252755545203e-06,1.65543581475688e-07,1.77564631241507e-06,-7.70271325388422e-07,-3.11773957650223e-06,5.83759207208212e-07,-2.88314093814277e-06,7.7987890645832e-08,3.98135973062449e-08,-7.39389225255918e-06,5.22584849676119e-07,-1.47571132952569e-06,8.3084255854371e-08,7.27305312049709e-07,-2.0750002833659e-06,3.58751888617876e-08,3.19712679797627e-06,-3.82911700351093e-06,-2.8538491045597e-06,-4.00670440520644e-07
-3.3976523809528e-06,-8.8660550316937e-07,-3.01881121503346e-06,-6.82368795139023e-07,-2.94714314782019e-06,-1.78734538681337e-06,-3.94796693527113e-06,-7.79574022393394e-07,2.29214284976144e-06,-5.85842323635549e-07,-7.52909518133586e-06,-2.66693631493281e-06,-2.47020957292833e-06,-9.5919583613416e-07,-1.06766280405167e-07,-1.57978927285658e-06,2.37133645346065e-06,-1.69417973341452e-06,-1.34244540563832e-06,7.9530810201269e-07,3.18167801708833e-06,-1.32560796921632e-06,-5.52171132408362e-07,-1.63815144342428e-06,-3.0556780923267e-06,-2.05490689063952e-07,5.16714141209379e-06,-1.09675568362945e-05,-8.26957972359287e-06,5.87479611837144e-07,6.0379836870227e-07,-1.02694345226727e-06,2.63872985374158e-06,-1.86522507791974e-06,1.03200593226271e-07,-1.12984978310935e-06,-8.78667016371712e-07,-1.27713957974343e-07,2.99902493707506e-06,-2.53547965394616e-06,-3.13394415894236e-07,1.56406286794138e-07,1.09372313379591e-06,-1.88171884125141e-06,-1.07358884042972e-05,4.32646778493233e-06,-1.8890063105329e-07,3.1360902036638e-07,1.10249782604081e-05,-1.74080637703063e-05,9.51357927345023e-07,-4.11023118749603e-07,-2.50119372271251e-06,1.95277965244063e-07,1.69573221976082e-06,-6.43533519982452e-07,-3.22384624590864e-06,5.50011189100335e-07,-2.97451683475478e-06,1.9067653880008e-07,-5.08288637047261e-08,-7.07199549530104e-06,3.26353497642115e-07,-1.49040271533246e-06,-4.72944411563608e-08,7.39406496461931e-07,-2.1336187433589e-06,2.76134728026682e-08,3.02273020550054e-06,-3.81680174977382e-06,-3.10837262251596e-06,-3.92033689354457e-07
-3.55159388110885e-06,-8.82512864019896e-07,-3.08333659143574e-06,-6.70828260788361e-07,-3.16353833003463e-06,-1.77049188642711e-06,-4.04652189795143e-06,-7.83724828833899e-07,2.21821360308822e-06,-5.8970742738292e-07,-7.64567331743234e-06,-2.66017999702483e-06,-2.5952174889464e-06,-9.73220903200042e-07,-2.31114915775429e-07,-1.58614601772571e-06,2.13847403323335e-06,-1.69674409679825e-06,-1.35277393419716e-06,7.98275235595844e-07,3.22601079757484e-06,-1.34720649575351e-06,-6.13016739376302e-07,-1.60680031778855e-06,-3.04155502188429e-06,-2.74105916925779e-07,5.21456531486761e-06,-1.10087924032597e-05,-8.38827490244013e-06,6.79653028941274e-07,4.8952638260494e-07,-1.03386360716709e-06,2.57426029139808e-06,-1.86467876012672e-06,-2.02236107104536e-07,-8.66596214499122e-07,-9.81248830659274e-07,-6.62135626044115e-08,2.8449760712318e-06,-2.53998952208092e-06,-3.29138247096308e-07,1.66982708772367e-07,1.08231579925849e-06,-1.86032195934854e-06,-1.00845593795828e-05,3.87525831016458e-06,-2.02092114239675e-07,3.18436946638218e-07,1.10782775457736e-05,-1.74411911484811e-05,9.94618425871981e-07,-4.19679502797125e-07,-2.46953038482818e-06,2.24020804948145e-07,1.60820680865149e-06,-5.12462579532624e-07,-3.32806666798697e-06,5.14379307831858e-07,-3.0599042931492e-06,3.02766220634002e-07,-1.57918702004915e-07,-6.73355202659238e-06,1.27705641001582e-07,-1.50390182648842e-06,-1.79946642680591e-07,7.53780493717838e-07,-2.18941572394725e-06,1.92246637866227e-08,2.84346193675325e-06,-3.79990874406848e-06,-3.35064205536355e-06,-3.84970252119764e-07
-3.7085265653664e-06,-8.77121751232877e-07,-3.14764544368112e-06,-6.5820234382055e-07,-3.38161788216979e-06,-1.75256144448763e-06,-4.14610843920659e-06,-7.87844867465565e-07,2.13892444674623e-06,-5.93387423913986e-07,-7.75762861524112e-06,-2.65257675666712e-06,-2.7228160939337e-06,-9.87216206430833e-07,-3.58810910272115e-07,-1.59109589062207e-06,1.90072956721649e-06,-1.69890068410815e-06,-1.36381811438919e-06,8.00753987123741e-07,3.27217957390806e-06,-1.36906136042712e-06,-6.73323854425552e-07,-1.57269539594715e-06,-3.02513410231749e-06,-3.44847122165379e-07,5.249776646229e-06,-1.10330672377418e-05,-8.49701698301359e-06,7.65475489484984e-07,3.72941820840869e-07,-1.03786068043722e-06,2.50951051393369e-06,-1.86316328666002e-06,-4.96482782918206e-07,-6.097566639963e-07,-1.08310692063388e-06,-4.52068271433409e-09,2.69217847587225e-06,-2.54361017726464e-06,-3.45605494378004e-07,1.774668030632e-07,1.07029385880454e-06,-1.83837773688026e-06,-9.43014578104507e-06,3.42201747782942e-06,-2.15839600245379e-07,3.23616492714034e-07,1.11234083886586e-05,-1.74650252052255e-05,1.03437822498447e-06,-4.2912883671637e-07,-2.43764414962163e-06,2.51616515630865e-07,1.51321879478009e-06,-3.77239752657239e-07,-3.42999861266488e-06,4.76869861951574e-07,-3.13869512495261e-06,4.13719828799077e-07,-2.82245724559402e-07,-6.37833062694988e-06,-7.26929107740452e-08,-1.51627673738667e-06,-3.14866323113288e-07,7.70457063337997e-07,-2.24213892985757e-06,1.07239290084232e-08,2.65949576298818e-06,-3.77828761581407e-06,-3.57951932628891e-06,-3.79611520168569e-07
-3.86792984777972e-06,-8.70451018132929e-07,-3.2114458972754e-06,-6.4450727635279e-07,-3.6007729231592e-06,-1.73358151372114e-06,-4.24639645064141e-06,-7.91931897953112e-07,2.05417432185318e-06,-5.96879090310523e-07,-7.8642768112853e-06,-2.64412556249125e-06,-2.85273304610645e-06,-1.00117072780482e-06,-4.8931313217004e-07,-1.5947060409287e-06,1.65862960021231e-06,-1.7006187151203e-06,-1.37559220330405e-06,8.0278291442723e-07,3.31998514762815e-06,-1.39109323249606e-06,-7.32994580057301e-07,-1.53584552429098e-06,-3.00610407447336e-06,-4.17861364977271e-07,5.27313864889391e-06,-1.10406122308599e-05,-8.59526785737737e-06,8.44348207606046e-07,2.54343191071114e-07,-1.03892139351622e-06,2.44470185790203e-06,-1.86066427621475e-06,-7.78524514961071e-07,-3.60221017669312e-07,-1.18388025914375e-06,5.71595485559635e-08,2.54091653927408e-06,-2.54625370838303e-06,-3.62746055949814e-07,1.87845617572181e-07,1.0577366086533e-06,-1.81600120001972e-06,-8.77386080143944e-06,2.96792063732263e-06,-2.30169461636115e-07,3.2916914692579e-07,1.11599188866489e-05,-1.74795094207584e-05,1.07070870798818e-06,-4.393355879209e-07,-2.40563436118641e-06,2.7792140851226e-07,1.41094142788496e-06,-2.38061924284475e-07,-3.52925530019072e-06,4.37493207449273e-07,-3.21032540255137e-06,5.23013787325303e-07,-4.24525758259908e-07,-6.00612819953578e-06,-2.74186940166511e-07,-1.52759548545086e-06,-4.52047942517143e-07,7.8944793291841e-07,-2.29155345898808e-06,2.12657925533862e-09,2.47100410353607e-06,-3.75180169699817e-06,-3.79394834471431e-06,-3.76079682007734e-07
-4.02927513864489e-06,-8.62523498407169e-07,-3.27444804228258e-06,-6.29762699782359e-07,-3.82039942883049e-06,-1.7135843179154e-06,-4.3470560452477e-06,-7.95983743110427e-07,1.96385898959068e-06,-6.00183749161533e-07,-7.96496111556682e-06,-2.63482931811085e-06,-2.98468487305295e-06,-1.01507322285299e-06,-6.22072907943323e-07,-1.59704786924339e-06,1.41270319686499e-06,-1.70187011111871e-06,-1.38810845831849e-06,8.04403866437655e-07,3.36918556650505e-06,-1.41321481390796e-06,-7.91945845351348e-07,-1.49626761537833e-06,-2.98418548359675e-06,-4.9328413903948e-07,5.28508405569496e-06,-1.10317530077643e-05,-8.68249856291206e-06,9.15693826650378e-07,1.34025853406026e-07,-1.03705616925754e-06,2.38005057821872e-06,-1.85716907932739e-06,-1.04739443790937e-06,-1.18864148815205e-07,-1.28320625171831e-06,1.18618574207536e-07,2.39143749139083e-06,-2.54782610736654e-06,-3.80505627014941e-07,1.9810604444499e-07,1.0447161486295e-06,-1.79329903641048e-06,-8.11681444072177e-06,2.51404395161645e-06,-2.45108049210405e-07,3.35115519436295e-07,1.11873973585539e-05,-1.74846042621377e-05,1.10369723181725e-06,-4.50262290224591e-07,-2.3735929026872e-06,3.02804075376079e-07,1.30157132122685e-06,-9.51407847959959e-08,-3.6254676378144e-06,3.96264307968789e-07,-3.27428023461005e-06,6.30141604563099e-07,-5.85393891276867e-07,-5.61677630784018e-06,-4.76134820886644e-07,-1.53792527517584e-06,-5.91484374691751e-07,8.10745935215118e-07,-2.3374431466271e-06,-6.55191996551702e-09,2.27815796606571e-06,-3.72032931483708e-06,-3.99296215535998e-06,-3.74486469178682e-07
-4.1920286227934e-06,-8.53365971802012e-07,-3.33636573185709e-06,-6.13991711041726e-07,-4.03990145198515e-06,-1.69260680486223e-06,-4.44775976141096e-06,-7.99998322427544e-07,1.86787136856722e-06,-6.03307528789895e-07,-8.05905720201152e-06,-2.62469474169657e-06,-3.11837790672367e-06,-1.02891224610049e-06,-7.5653695864259e-07,-1.59819660073125e-06,1.16347934431753e-06,-1.70262962999786e-06,-1.40137709691856e-06,8.0566189978813e-07,3.41949593409551e-06,-1.43533061283106e-06,-8.50109440166153e-07,-1.45398702600517e-06,-2.95913275495728e-06,-5.71238071391461e-07,5.28611061933964e-06,-1.10069062475189e-05,-8.75819290823429e-06,9.78960818026957e-07,1.22811968382359e-08,-1.03229897320842e-06,2.31576671635435e-06,-1.85266690168775e-06,-1.30217852924541e-06,1.13458581804562e-07,-1.38072245011834e-06,1.79645282141645e-07,2.2439500535037e-06,-2.54822761266591e-06,-3.9882584125787e-07,2.08234754733981e-07,1.03129688323212e-06,-1.77036907895005e-06,-7.46001512480487e-06,2.06136310361276e-06,-2.60681518106145e-07,3.41475200394564e-07,1.12054761067159e-05,-1.74802887562761e-05,1.13344672786626e-06,-4.6186982233153e-07,-2.34160406430765e-06,3.26145666394934e-07,1.18532711204545e-06,5.12981178697131e-08,-3.71828631403853e-06,3.53203284426542e-07,-3.33009814482657e-06,7.34617223117783e-07,-7.65398066225019e-07,-5.21014780952543e-06,-6.77911316611145e-07,-1.5473317245525e-06,-7.33164810523853e-07,8.34324278308637e-07,-2.37961176741473e-06,-1.52959358486472e-08,2.08112690544684e-06,-3.68376499422232e-06,-4.17568946855388e-06,-3.74931989990892e-07
-4.35565402701775e-06,-8.43009113326724e-07,-3.39691834309382e-06,-5.9722089144246e-07,-4.25869421362049e-06,-1.67069056409008e-06,-4.54818471902244e-06,-8.03973681257026e-07,1.7661020773262e-06,-6.062615731359e-07,-8.14597790261147e-06,-2.6137322081443e-06,-3.25350929026368e-06,-1.04267618180752e-06,-8.92150317415774e-07,-1.59823084450944e-06,9.11484429489012e-07,-1.70287497953732e-06,-1.41540625406032e-06,8.06605156946375e-07,3.47058852593665e-06,-1.45733675119291e-06,-9.07431901097704e-07,-1.40903791366986e-06,-2.93073601229034e-06,-6.5183162963134e-07,5.27677605468671e-06,-1.09665752355505e-05,-8.82185129351811e-06,1.03362791850529e-06,-1.10604136564216e-07,-1.02470696358104e-06,2.25205299043818e-06,-1.84714890627988e-06,-1.54202035238415e-06,3.35915871632261e-07,-1.4760682732946e-06,2.40026873737455e-07,2.09862342379351e-06,-2.5473531184496e-06,-4.17644442810763e-07,2.18218129405592e-07,1.01753509052971e-06,-1.74729987432778e-06,-6.80437269759927e-06,1.61075328680857e-06,-2.76915645554617e-07,3.48266619579121e-07,1.12138349210361e-05,-1.74665620851729e-05,1.16007520351173e-06,-4.74117708396761e-07,-2.30974448025955e-06,3.47840065491831e-07,1.0624479704422e-06,2.01016425971582e-07,-3.80738374263251e-06,3.08335951211378e-07,-3.37737499798242e-06,8.35978127749275e-07,-9.64993155431316e-07,-4.78616344410322e-06,-8.78910154755543e-07,-1.55587817208454e-06,-8.77072677672125e-07,8.60135963194188e-07,-2.41788408758266e-06,-2.40896546320065e-08,1.88007899660545e-06,-3.6420205581434e-06,-4.34136052114651e-06,-3.7750365904721e-07
-4.51961537325178e-06,-8.31487426034225e-07,-3.4558324947496e-06,-5.79480317824968e-07,-4.47620706977268e-06,-1.64788170910796e-06,-4.64801473042167e-06,-8.07908016534116e-07,1.65844018161714e-06,-6.09062198207336e-07,-8.22517760627004e-06,-2.60195555612515e-06,-3.3897680634303e-06,-1.05635328089007e-06,-1.02835921898803e-06,-1.59723214151995e-06,6.57239774808301e-07,-1.7025869106466e-06,-1.43020193825549e-06,8.07284700726001e-07,3.52209321529682e-06,-1.47912081149926e-06,-9.63874251838989e-07,-1.36146357079864e-06,-2.89882262118452e-06,-7.35157852683986e-07,5.25769244685033e-06,-1.09113446867199e-05,-8.8729946862957e-06,1.07920855412896e-06,-2.34348988671236e-07,-1.0143599639936e-06,2.18910370803834e-06,-1.84060829297455e-06,-1.76612566349965e-06,5.47704947510222e-07,-1.56888672409874e-06,2.99549722284394e-07,1.95558659569784e-06,-2.54509264648463e-06,-4.36895492326085e-07,2.28042186685757e-07,1.00347856049568e-06,-1.72417033976276e-06,-6.15070258976338e-06,1.16299035920387e-06,-2.9383564165585e-07,3.55506907221058e-07,1.12122042678071e-05,-1.74434451693441e-05,1.18371513771918e-06,-4.86964440941612e-07,-2.27808313889323e-06,3.67793968235073e-07,9.33191972264406e-07,3.53764103427904e-07,-3.89245585153999e-06,2.61694326046656e-07,-3.41576743149632e-06,9.33788179595418e-07,-1.18453563617721e-06,-4.34479823621061e-06,-1.07854636103307e-06,-1.56362505903786e-06,-1.02318361727087e-06,8.88113361184859e-07,-2.45210676313108e-06,-3.29170675274031e-08,1.67518081516016e-06,-3.59502611620287e-06,-4.4893122300676e-06,-3.82275229652048e-07
-4.68337971533589e-06,-8.18839157284901e-07,-3.51284371858445e-06,-5.60803555506143e-07,-4.69188636490161e-06,-1.62423072333589e-06,-4.74694236357395e-06,-8.1179969924135e-07,1.54477414408102e-06,-6.11730991120621e-07,-8.29615635855534e-06,-2.58938186307603e-06,-3.52683632921387e-06,-1.06993170400567e-06,-1.16461394968344e-06,-1.5952845030272e-06,4.01259225759434e-07,-1.70174929066126e-06,-1.44576799009103e-06,8.07754303043613e-07,3.57359821139265e-06,-1.50056172878556e-06,-1.01941160171086e-06,-1.31131673643334e-06,-2.86325844936817e-06,-8.21293116023516e-07,5.22952021478593e-06,-1.08418749460898e-05,-8.91116870688447e-06,1.11525519598547e-06,-3.58678402112472e-07,-1.00135975098263e-06,2.12710370335861e-06,-1.83304035559628e-06,-1.97376682610432e-06,7.48055877183585e-07,-1.65882609332506e-06,3.58000216108925e-07,1.81492800567628e-06,-2.54133187916587e-06,-4.56509608302391e-07,2.37692506458754e-07,9.89166305660946e-07,-1.70104951167488e-06,-5.49973089784633e-06,7.18752994995366e-07,-3.11465955652361e-07,3.63211756582189e-07,1.12003681113607e-05,-1.741098221006e-05,1.2045127718296e-06,-5.00367822492282e-07,-2.24668146579389e-06,3.85926868834472e-07,7.97834353964051e-07,5.09280636852945e-07,-3.97322370866774e-06,2.13317103417363e-07,-3.44499576672672e-06,1.02764015942659e-06,-1.4242789487618e-06,-3.88608759157341e-06,-1.27625834761772e-06,-1.57062939359975e-06,-1.17146355487362e-06,9.1816796189595e-07,-2.4821490798525e-06,-4.17619572335364e-08,1.4665974234131e-06,-3.54273093327871e-06,-4.61899260347673e-06,-3.89305936064914e-07
-4.84641984628041e-06,-8.05106198312512e-07,-3.56769807482259e-06,-5.41227632332164e-07,-4.90519816196109e-06,-1.59979226777427e-06,-4.84467093760772e-06,-8.15647293175711e-07,1.42499297778705e-06,-6.14294846330263e-07,-8.35846362529841e-06,-2.57603119217523e-06,-3.66439049431774e-06,-1.08339957017361e-06,-1.30037163577291e-06,-1.59247394174066e-06,1.44046812793389e-07,-1.70034915457123e-06,-1.46210604831976e-06,8.08070190395992e-07,3.62465111725629e-06,-1.52152973417211e-06,-1.07403260679484e-06,-1.2586598805202e-06,-2.82394884698376e-06,-9.10295934387358e-07,5.19296172591052e-06,-1.07588956983934e-05,-8.93594777187397e-06,1.141363595681e-06,-4.83324334503605e-07,-9.85829137560331e-07,2.0662273050878e-06,-1.82444251759028e-06,-2.16428701674689e-06,9.36235689190772e-07,-1.74554164353933e-06,4.15165586658299e-07,1.67669551267938e-06,-2.53595275309889e-06,-4.76414242931342e-07,2.47154152983101e-07,9.74628347437342e-07,-1.67799638917351e-06,-4.8521001059927e-06,2.78625675177525e-07,-3.29830080343434e-07,3.71395289663327e-07,1.11781663215784e-05,-1.73692421636582e-05,1.22262730195047e-06,-5.1428532126035e-07,-2.21559347560049e-06,4.02170962504343e-07,6.56665672376053e-07,6.6729628899551e-07,-4.04943497031462e-06,1.63250084869851e-07,-3.46484637434322e-06,1.11715800200872e-06,-1.68436957934659e-06,-3.41013299089374e-06,-1.47150974969643e-06,-1.5769442965307e-06,-1.32186689618291e-06,9.50190300923211e-07,-2.50790352951492e-06,-5.06078861728691e-08,1.25449236624994e-06,-3.48510417242684e-06,-4.72996437007417e-06,-3.9863975290195e-07
-5.0082169495169e-06,-7.90333967087992e-07,-3.62015369406618e-06,-5.2079299304485e-07,-5.11563081213274e-06,-1.5746249483915e-06,-4.94091641632001e-06,-8.19449569318444e-07,1.2989876027582e-06,-6.16785931197269e-07,-8.41170165353338e-06,-2.56192631652526e-06,-3.80210256733531e-06,-1.0967450098313e-06,-1.43509893896772e-06,-1.58888799789166e-06,-1.13905464712951e-07,-1.69837673120735e-06,-1.47921553030575e-06,8.08290750516261e-07,3.67476031863963e-06,-1.54188635645638e-06,-1.12773879946787e-06,-1.20356544981062e-06,-2.78083935381594e-06,-1.00220580020588e-06,5.14875463737933e-06,-1.0663199286176e-05,-8.94693924097316e-06,1.15717684932651e-06,-6.08026371384629e-07,-9.6791084874715e-07,2.00663734458521e-06,-1.81481434820344e-06,-2.33710423392003e-06,1.11155232578218e-06,-1.82869726637054e-06,4.70834725525056e-07,1.54089671728325e-06,-2.52883411295823e-06,-4.96533993756803e-07,2.56411596217911e-07,9.5988557794205e-07,-1.65505987220742e-06,-4.2083752620168e-06,-1.56897566017672e-07,-3.48950355907693e-07,3.80069926497076e-07,1.1145496618439e-05,-1.73183201206552e-05,1.23822997487626e-06,-5.28674440884868e-07,-2.18486598799006e-06,4.1647096703776e-07,5.09989893360684e-07,8.27533380933142e-07,-4.12086513402713e-06,1.11546560208525e-07,-3.47517345490604e-06,1.20199868774978e-06,-1.9648438899066e-06,-2.91710720836704e-06,-1.66379100670374e-06,-1.5826186253278e-06,-1.47433487142098e-06,9.84050074499638e-07,-2.52928621591636e-06,-5.94381873820986e-08,1.03902768638539e-06,-3.42213550801985e-06,-4.82190778479985e-06,-4.10304779146668e-07
-5.16826316397394e-06,-7.74571274806196e-07,-3.66998222604763e-06,-4.99543433214434e-07,-5.32269732016081e-06,-1.54879104303155e-06,-5.03540916628035e-06,-8.23205515343191e-07,1.16665238663654e-06,-6.19241571052019e-07,-8.45552836667434e-06,-2.54709242707535e-06,-3.93964149714568e-06,-1.10995622076084e-06,-1.56827462986126e-06,-1.58461526315049e-06,-3.72119685047764e-07,-1.69582544262078e-06,-1.49709363605884e-06,8.08476203515224e-07,3.72339671506808e-06,-1.5614844876785e-06,-1.18054379536459e-06,-1.14611606054882e-06,-2.73391613308569e-06,-1.09704206150957e-06,5.09766501210528e-06,-1.05556336783633e-05,-8.94378751154323e-06,1.16238923503754e-06,-7.32532421241506e-07,-9.4776620893007e-07,1.94848421373256e-06,-1.80415756170882e-06,-2.49171514712587e-06,1.27335850983497e-06,-1.90796711091919e-06,5.2479899745388e-07,1.40749962854921e-06,-2.51985242499061e-06,-5.16790956177841e-07,2.65448630381922e-07,9.44949692051415e-07,-1.63227879033225e-06,-3.56905044499907e-06,-5.87408717055013e-07,-3.68847772626948e-07,3.89246256453549e-07,1.11023160017322e-05,-1.72583385585128e-05,1.25150308021765e-06,-5.43493110498765e-07,-2.15453890524609e-06,4.28783865305862e-07,3.58122429040664e-07,9.89707576724366e-07,-4.18731858063442e-06,5.82676319847139e-08,-3.47590018733091e-06,1.28185374796449e-06,-2.26562572278575e-06,-2.40725898416231e-06,-1.85262069064328e-06,-1.58769667462341e-06,-1.62879404882772e-06,1.01959644646536e-06,-2.54623708683317e-06,-6.82359585393087e-08,8.20363968028231e-07,-3.35383560639041e-06,-4.89462257620823e-06,-4.24312753597187e-07
-5.32606404222948e-06,-7.57870176455414e-07,-3.71697018178585e-06,-4.77526012197298e-07,-5.52593748105488e-06,-1.52235619045218e-06,-5.12789556154737e-06,-8.26914340232255e-07,1.02788682532003e-06,-6.21704046504458e-07,-8.48965976573976e-06,-2.53155683160373e-06,-4.07667454009284e-06,-1.12302152493083e-06,-1.69939202234945e-06,-1.57974490559169e-06,-6.30133858745286e-07,-1.69269187695655e-06,-1.51573538676568e-06,8.08688239357045e-07,3.76999579870573e-06,-1.58016851836243e-06,-1.23247239176124e-06,-1.08640462286402e-06,-2.68320612204906e-06,-1.19480285481792e-06,5.04048024056927e-06,-1.04370950910123e-05,-8.926178005777e-06,1.15674976460544e-06,-8.56599372404375e-07,-9.25573670578486e-07,1.89190497887959e-06,-1.79247600260899e-06,-2.62769883017521e-06,1.42105563304468e-06,-1.98303718567288e-06,5.76853059159472e-07,1.27643368061985e-06,-2.50888254840187e-06,-5.37105123146848e-07,2.7424828765488e-07,9.29823183498006e-07,-1.60968201699175e-06,-2.93455525147533e-06,-1.01258091901364e-06,-3.89541771256463e-07,3.98932908843338e-07,1.10486416187964e-05,-1.71894484317105e-05,1.26263882724182e-06,-5.58700103398153e-07,-2.12464554911183e-06,4.39078569873753e-07,2.01388139413991e-07,1.1535291480026e-06,-4.24862940021637e-06,3.48247565689703e-09,-3.46701920376234e-06,1.35645034807728e-06,-2.58652482037766e-06,-1.88091707356867e-06,-2.03754659298204e-06,-1.59221795138053e-06,-1.78515503798793e-06,1.05665855091281e-06,-2.55871999229301e-06,-7.69840592930016e-08,5.98660414143763e-07,-3.28023647174472e-06,-4.94802901596537e-06,-4.40658707015737e-07
-5.48114089472188e-06,-7.40285805640516e-07,-3.76092016435142e-06,-4.54790944672771e-07,-5.7249197919313e-06,-1.49538904594986e-06,-5.21813943267619e-06,-8.30575474156792e-07,8.82597305456555e-07,-6.24220303434085e-07,-8.51387184497429e-06,-2.51534865153661e-06,-4.21286865135339e-06,-1.13592942426427e-06,-1.82796126465471e-06,-1.57436619889854e-06,-8.87503595067408e-07,-1.6889757361929e-06,-1.53513370705426e-06,8.08989623900677e-07,3.81396007953734e-06,-1.59777454840412e-06,-1.28355957413759e-06,-1.0245343856071e-06,-2.62877689171108e-06,-1.29546411125052e-06,4.97800179639889e-06,-1.03085202588299e-05,-8.89384099825925e-06,1.14006539132832e-06,-9.79993698237162e-07,-9.01527210384932e-07,1.83702255536611e-06,-1.77977561960732e-06,-2.74472038741053e-06,1.55409774064552e-06,-2.05360693810828e-06,6.26795694988939e-07,1.14759109370719e-06,-2.49579856147141e-06,-5.57394835726369e-07,2.82792745943027e-07,9.14499403605028e-07,-1.58728866676745e-06,-2.30526093126614e-06,-1.43216352084604e-06,-4.11050040432052e-07,4.09136421053852e-07,1.09845510350652e-05,-1.71118300597566e-05,1.27183810033284e-06,-5.74255488273518e-07,-2.0952130517184e-06,4.47335511884867e-07,4.01193161631913e-08,1.3187042014362e-06,-4.30466200730055e-06,-5.27314687306046e-08,-3.44859236616665e-06,1.42555193294909e-06,-2.92723610530027e-06,-1.33849359228878e-06,-2.2181465874379e-06,-1.59621702274382e-06,-1.94331140432458e-06,1.0950461919159e-06,-2.56672257336011e-06,-8.56651121346028e-08,3.74074959948095e-07,-3.20139165527354e-06,-4.98216810555614e-06,-4.59320754177425e-07
-5.63303301856819e-06,-7.21876193271735e-07,-3.80165198678603e-06,-4.31391469970696e-07,-5.91924315354211e-06,-1.46796090753265e-06,-5.3059233595141e-06,-8.34188563495824e-07,7.30698896132433e-07,-6.26841582931408e-07,-8.52800203745443e-06,-2.49849852150583e-06,-4.34789189664842e-06,-1.14866865381839e-06,-1.95351148576517e-06,-1.56856805895091e-06,-1.14380358857028e-06,-1.68467975954314e-06,-1.5552795543557e-06,8.09443778047689e-07,3.8546618508088e-06,-1.61413067996363e-06,-1.33384944361999e-06,-9.60618897065451e-07,-2.57073622090756e-06,-1.39897864240127e-06,4.91103786019761e-06,-1.01708783756665e-05,-8.84655523339654e-06,1.11220382306788e-06,-1.10249199512232e-06,-8.75834621180689e-07,1.78394494868488e-06,-1.76606443020837e-06,-2.84253442269128e-06,1.67199562442888e-06,-2.11939081446954e-06,6.74430680212996e-07,1.02082857133853e-06,-2.48047463846801e-06,-5.77577281969302e-07,2.91063232256625e-07,8.98962687493876e-07,-1.5651083753311e-06,-1.68148590329497e-06,-1.84597734047341e-06,-4.3338831215835e-07,4.19861105353181e-07,1.09101818850265e-05,-1.70256937725539e-05,1.27930910131743e-06,-5.90121107220534e-07,-2.06626278984521e-06,4.53546159215506e-07,-1.25346325398992e-07,1.48493585594595e-06,-4.35531155307635e-06,-1.10288374130992e-07,-3.42074984207699e-06,1.48895844404156e-06,-3.28733985430909e-06,-7.80486577951398e-07,-2.39402928535525e-06,-1.59972343249986e-06,-2.10313881344212e-06,1.13455073973082e-06,-2.57025598654456e-06,-9.42615075135763e-08,1.4676442786706e-07,-3.11737632586875e-06,-4.99720088157699e-06,-4.80260027138895e-07
-5.78129980236216e-06,-7.02702069319093e-07,-3.83900367079441e-06,-4.07383697800389e-07,-6.10853836108091e-06,-1.44014531441283e-06,-5.39104979377588e-06,-8.37753460291414e-07,5.72117135674429e-07,-6.29622980339911e-07,-8.5319501795317e-06,-2.4810382942934e-06,-4.48141487428031e-06,-1.1612282316148e-06,-2.07559278923494e-06,-1.56243859110495e-06,-1.39862891402831e-06,-1.67980962203134e-06,-1.57616209004413e-06,8.10114337763154e-07,3.89144628793716e-06,-1.62905739891869e-06,-1.38339406837038e-06,-8.94781881739664e-07,-2.50923139883447e-06,-1.50527530016119e-06,4.84039586739053e-06,-1.00251627560034e-05,-8.78415127798461e-06,1.0730958987915e-06,-1.22388142242987e-06,-8.48715740345047e-07,1.73276457259551e-06,-1.75135247634497e-06,-2.92098827204367e-06,1.77432099632131e-06,-2.18011979826103e-06,7.19567681895792e-07,8.95969328135942e-07,-2.46278597307271e-06,-5.9756903318945e-07,2.99039926774259e-07,8.83188555869094e-07,-1.54314166024005e-06,-1.06350060789558e-06,-2.25391015946627e-06,-4.56570158540994e-07,4.3110891925688e-07,1.08257308947542e-05,-1.69312802698584e-05,1.28526590655548e-06,-6.06261062594055e-07,-2.03781084419697e-06,4.57712473013058e-07,-2.94667611292602e-07,1.65192536199619e-06,-4.40050413511019e-06,-1.69093975310927e-07,-3.38368849921537e-06,1.54650614680674e-06,-3.6663027700566e-06,-2.0748168982122e-07,-2.564834495576e-06,-1.60276168088284e-06,-2.26449441722686e-06,1.17494622058707e-06,-2.56935446740238e-06,-1.02755414503066e-07,-8.31152641468056e-08,-3.02828720207056e-06,-4.99340683939604e-06,-5.03420749849097e-07
-5.9255226859571e-06,-6.82826646865168e-07,-3.87283231121894e-06,-3.82826428749014e-07,-6.2924693587251e-06,-1.41201761820582e-06,-5.47334198122696e-06,-8.41270204972432e-07,4.06789799649755e-07,-6.32622941564176e-07,-8.52567894782399e-06,-2.46300075222051e-06,-4.61311213030689e-06,-1.17359750494305e-06,-2.19377807819301e-06,-1.55606465172029e-06,-1.65159609584883e-06,-1.67437380710355e-06,-1.59776887876043e-06,8.11064705543052e-07,3.92363487459728e-06,-1.64236805147897e-06,-1.43225225361223e-06,-8.27157032835262e-07,-2.44444826581317e-06,-1.61425820621288e-06,4.76687507817016e-06,-9.8723823221691e-06,-8.70651454740649e-06,1.02273749856927e-06,-1.34396000242584e-06,-8.20400661412088e-07,1.68355765758025e-06,-1.73565177000084e-06,-2.98002493714886e-06,1.86071071048951e-06,-2.23554291992544e-06,7.62023204012971e-07,7.7280544398188e-07,-2.44260974286687e-06,-6.17286599407237e-07,3.06701875429751e-07,8.67144000139889e-07,-1.52138035663507e-06,-4.51531794260675e-07,-2.65591231527097e-06,-4.80606794571845e-07,4.42879347210211e-07,1.07314522854725e-05,-1.68288606490667e-05,1.2899269831562e-06,-6.22642186204538e-07,-2.00986845881279e-06,4.59846314585621e-07,-4.67501791711691e-07,1.81937316368113e-06,-4.44019679624837e-06,-2.29045595511279e-07,-3.33766965485896e-06,1.59806712906278e-06,-4.06347992124665e-06,3.79847021690068e-07,-2.73023349596719e-06,-1.60535126400201e-06,-2.42721648548891e-06,1.21599059472299e-06,-2.56407473549129e-06,-1.1112879874942e-07,-3.15408824078612e-07,-2.93424234681247e-06,-4.97118147406141e-06,-5.28730453403172e-07
-6.06530694939347e-06,-6.62315388136912e-07,-3.9030147874911e-06,-3.57780948393877e-07,-6.47073422235581e-06,-1.38365452865273e-06,-5.55264465041346e-06,-8.44739001197485e-07,2.34668646787167e-07,-6.35902704096219e-07,-8.50921371301726e-06,-2.44441932546488e-06,-4.74266354863852e-06,-1.18576619311802e-06,-2.30766469584264e-06,-1.54953142752397e-06,-1.90234391858141e-06,-1.66838345272312e-06,-1.62008609886442e-06,8.12357604766788e-07,3.95052914791028e-06,-1.65386942234851e-06,-1.48048822334501e-06,-7.57887718449811e-07,-2.37660999257741e-06,-1.72580606111468e-06,4.69125931482306e-06,-9.71355307923657e-06,-8.61358794525426e-06,9.61190971990512e-07,-1.46253674681826e-06,-7.91127963974093e-07,1.63638376184154e-06,-1.71897622692191e-06,-3.01968567554661e-06,1.93087099461102e-06,-2.28542872334925e-06,8.01621575166425e-07,6.51100534210807e-07,-2.41982610717106e-06,-6.36646984552621e-07,3.14026918812118e-07,8.50787856228555e-07,-1.49980811980319e-06,1.54233642557996e-07,-3.05199224957768e-06,-5.05506891710796e-07,4.55169301434299e-07,1.06276555886995e-05,-1.67187360606109e-05,1.29351371036307e-06,-6.3923446586354e-07,-1.98244247657745e-06,4.59968814587205e-07,-6.43506306976623e-07,1.98697991089652e-06,-4.47437730428098e-06,-2.90032259919514e-07,-3.28301622396291e-06,1.64354853449271e-06,-4.47811750373218e-06,9.807373195884e-07,-2.88992912206075e-06,-1.60750677296791e-06,-2.59112428112606e-06,1.25742721509077e-06,-2.55449524406585e-06,-1.19363449379703e-07,-5.49961222623379e-07,-2.83538082875132e-06,-4.93103294575164e-06,-5.56100329749231e-07
-6.20028331388048e-06,-6.4123575287364e-07,-3.92944830920652e-06,-3.32310794876304e-07,-6.64306585191784e-06,-1.35513363914091e-06,-5.62882445056823e-06,-8.48160182287889e-07,5.57211358627025e-08,-6.39525690508187e-07,-8.4826417845927e-06,-2.42532781794438e-06,-4.86975570467676e-06,-1.19772442647364e-06,-2.41687587615954e-06,-1.54292203601657e-06,-2.15053397223144e-06,-1.6618521719096e-06,-1.64309875113117e-06,8.14054646003704e-07,3.97141474990007e-06,-1.66336242006219e-06,-1.52817021175661e-06,-6.87126603383436e-07,-2.30597559536075e-06,-1.83977155963857e-06,4.61431003441199e-06,-9.54968976925651e-06,-8.50537407027889e-06,8.88586081620279e-07,-1.57943160049096e-06,-7.61142976864756e-07,1.59128539207247e-06,-1.70134158630715e-06,-3.04011218393875e-06,1.98458161069133e-06,-2.32956667110825e-06,8.3819596603701e-07,5.3059271057091e-07,-2.39431922784608e-06,-6.55568229248325e-07,3.20991641776208e-07,8.34071268651415e-07,-1.4784009884447e-06,7.53645139624443e-07,-3.44221187889181e-06,-5.31276404964009e-07,4.67973046557846e-07,1.05147029193058e-05,-1.66012369672214e-05,1.2962489341564e-06,-6.56011416511543e-07,-1.95553573805017e-06,4.58109714035578e-07,-8.22340414075523e-07,2.15444742794124e-06,-4.50306371341524e-06,-3.51934901971695e-07,-3.22010931567824e-06,1.68289157945783e-06,-4.90935638283884e-06,1.5943399675891e-06,-3.04365568044701e-06,-1.60923805532734e-06,-2.75601817408479e-06,1.29898645725198e-06,-2.54071528175026e-06,-1.27441015927286e-07,-7.86617240603144e-07,-2.73186225584327e-06,-4.87357789536125e-06,-5.8542571879465e-07
-6.33010935381344e-06,-6.19656930199563e-07,-3.95205079546034e-06,-3.06481500982307e-07,-6.80923238618278e-06,-1.32653293988672e-06,-5.70177014560826e-06,-8.51534169738162e-07,-1.30067905387927e-07,-6.43556862890488e-07,-8.44611107101942e-06,-2.40576014193246e-06,-4.99408318046805e-06,-1.20946278103139e-06,-2.52106201159504e-06,-1.53631714926715e-06,-2.395850959527e-06,-1.6547958502863e-06,-1.66679086264306e-06,8.16215909086419e-07,3.985565767508e-06,-1.67064287387018e-06,-1.57536897017171e-06,-6.15035197474287e-07,-2.23283818844697e-06,-1.95598095044356e-06,4.53675989500974e-06,-9.38179789054416e-06,-8.38193696573978e-06,8.05120458592818e-07,-1.69447521564768e-06,-7.30696075403667e-07,1.54828773577208e-06,-1.68276531449512e-06,-3.04154826207836e-06,2.02169980244874e-06,-2.36776847251025e-06,8.71589416453346e-07,4.10997791100488e-07,-2.36597830069217e-06,-6.73969940999557e-07,3.27571343423077e-07,8.16938241551113e-07,-1.45712800584268e-06,1.34658505374237e-06,-3.82668161470064e-06,-5.5791841342864e-07,4.81282147659561e-07,1.03930057569723e-05,-1.64767220074256e-05,1.2983555547311e-06,-6.72950398563488e-07,-1.92914744687457e-06,4.54306683915909e-07,-1.00366666607035e-06,2.3214796367291e-06,-4.52630371838961e-06,-4.14626663459538e-07,-3.14938433555945e-06,1.71607038027613e-06,-5.35623639665253e-06,2.21972087327317e-06,-3.19117869845995e-06,-1.61055043991001e-06,-2.92167998666158e-06,1.34038750817978e-06,-2.52285393742905e-06,-1.35343055422868e-07,-1.02522093344368e-06,-2.6238661879668e-06,-4.79953645606875e-06,-6.16586720138112e-07
-6.45447072901486e-06,-5.97649556074935e-07,-3.97076109759536e-06,-2.80360312994184e-07,-6.96903737138857e-06,-1.29793032641813e-06,-5.77139258712333e-06,-8.54861425268762e-07,-3.22694686046976e-07,-6.48062047127533e-07,-8.3998282153591e-06,-2.3857500633475e-06,-5.11534984336299e-06,-1.22097230794577e-06,-2.61990174763498e-06,-1.52979464221534e-06,-2.63800280575078e-06,-1.6472324240309e-06,-1.69114569195412e-06,8.18899539557604e-07,3.99224934214372e-06,-1.67550244541957e-06,-1.62215620213501e-06,-5.41783347563577e-07,-2.15752298025254e-06,-2.07423377929163e-06,4.45930695072872e-06,-9.21086624703515e-06,-8.24340340432409e-06,7.11059558742994e-07,-1.80750858069088e-06,-7.00041007360825e-07,1.50739850419102e-06,-1.66326649087856e-06,-3.02434080425111e-06,2.0421638331232e-06,-2.39986932478836e-06,9.01655853285623e-07,2.92012708717908e-07,-2.33469858498006e-06,-6.91773820796959e-07,3.3374002426376e-07,7.99326269305959e-07,-1.43595189728785e-06,1.93296515765945e-06,-4.20555491231497e-06,-5.85432972384704e-07,4.95085437386669e-07,1.02630212785304e-05,-1.63455764818884e-05,1.30005512601381e-06,-6.90032894848333e-07,-1.90327351655949e-06,4.48604630048288e-07,-1.18715224503304e-06,2.48778342364053e-06,-4.54417381300391e-06,-4.77973286784315e-07,-3.07132665777637e-06,1.74309060723979e-06,-5.81770140392664e-06,2.85586413220098e-06,-3.3322945231752e-06,-1.61144502152769e-06,-3.08787355640422e-06,1.38134029662136e-06,-2.50104894101837e-06,-1.43051089005184e-07,-1.26561502437093e-06,-2.51159143580779e-06,-4.70972651921389e-06,-6.49448917536041e-07
-6.5730822421218e-06,-5.75285419227785e-07,-3.9855390753767e-06,-2.54015889609899e-07,-7.12231970395606e-06,-1.26940310867641e-06,-5.83762448706555e-06,-8.5814239842023e-07,-5.22134954084493e-07,-6.53107235550925e-07,-8.34405626411039e-06,-2.36533096044362e-06,-5.23327008510295e-06,-1.23224455658817e-06,-2.71310290456778e-06,-1.5234292653805e-06,-2.87672059542703e-06,-1.63918164131675e-06,-1.71614594394396e-06,8.22161356649196e-07,3.99073053288491e-06,-1.67772965790548e-06,-1.66860294252063e-06,-4.67548688273205e-07,-2.08038501819038e-06,-2.19430284511906e-06,4.38260959166749e-06,-9.03786016963712e-06,-8.08996370981049e-06,6.06736100742216e-07,-1.91838252841607e-06,-6.69433236026159e-07,1.46860788609282e-06,-1.6428656749022e-06,-2.98893995923135e-06,2.04599590814114e-06,-2.42572906310712e-06,9.28261087481672e-07,1.73319072783669e-07,-2.30038242044324e-06,-7.08904196094069e-07,3.39470388340811e-07,7.81167038915497e-07,-1.41482979987438e-06,2.51272299794695e-06,-4.57902244630859e-06,-6.13816974506956e-07,5.09368997100578e-07,1.0125248269288e-05,-1.6208210480536e-05,1.30156644660458e-06,-7.07244755751308e-07,-1.87790691407981e-06,4.41054992820754e-07,-1.37247014566971e-06,2.65306943542653e-06,-4.5567782574322e-06,-5.4183359742312e-07,-2.98646693408929e-06,1.76398798628542e-06,-6.29260503873085e-06,3.50167590440489e-06,-3.46682978030911e-06,-1.61191899666189e-06,-3.25434549386065e-06,1.42154754164848e-06,-2.47545539110831e-06,-1.50546667004535e-07,-1.50764023561482e-06,-2.39525525301342e-06,-4.60505731355114e-06,-6.83864203197792e-07
-6.68568871112484e-06,-5.52637158952898e-07,-3.99636552838264e-06,-2.27517984754312e-07,-7.26895333504528e-06,-1.24102752384893e-06,-5.9004199959071e-06,-8.61377471693599e-07,-7.28342600874606e-07,-6.58757875570654e-07,-8.2791118975649e-06,-2.34453559878933e-06,-5.34757000791746e-06,-1.24327159003154e-06,-2.80040321225321e-06,-1.51729234117521e-06,-3.1117583293077e-06,-1.63066480946198e-06,-1.74177399780122e-06,8.2605447311725e-07,3.98027742178432e-06,-1.67711104488588e-06,-1.71477789665659e-06,-3.92516059143175e-07,-2.00180668325849e-06,-2.31593438442716e-06,4.30728232534949e-06,-8.86371551849025e-06,-7.92187211668105e-06,4.92548973089988e-07,-2.02695714578969e-06,-6.39128277173354e-07,1.43188861558993e-06,-1.6215847541546e-06,-2.93589833165679e-06,2.03330432865355e-06,-2.44523321544917e-06,9.51283784053376e-07,5.45868499107967e-08,-2.26294022298533e-06,-7.25288563906801e-07,3.44733861899859e-07,7.62387199020435e-07,-1.39371403692995e-06,3.08581824458603e-06,-4.94730622210004e-06,-6.43064018505332e-07,5.24116149605272e-07,9.98022263343858e-06,-1.60650566512e-05,1.30310413913868e-06,-7.24576414215378e-07,-1.85303800482887e-06,4.31715051987774e-07,-1.55930019689737e-06,2.81705279321612e-06,-4.56424785180527e-06,-6.06060073385221e-07,-2.89537610526928e-06,1.77882668358419e-06,-6.77971710509496e-06,4.15598905920561e-06,-3.59464070089487e-06,-1.61196603668267e-06,-3.4208261054788e-06,1.4607068921898e-06,-2.44624437785998e-06,-1.57811441395096e-07,-1.75113456164222e-06,-2.27509242785846e-06,-4.48652235099059e-06,-7.19671690349622e-07
-6.79206563510397e-06,-5.29777958187138e-07,-4.00324197625839e-06,-2.00937118071509e-07,-7.40884670022991e-06,-1.21287825554215e-06,-5.95975408058021e-06,-8.6456690499735e-07,-9.41248360430718e-07,-6.65078151022943e-07,-8.20536222677342e-06,-2.32339592460392e-06,-5.45798853718465e-06,-1.2540459917394e-06,-2.88157083664667e-06,-1.51145148301744e-06,-3.34289247771668e-06,-1.62170452980108e-06,-1.76801214457852e-06,8.30628931840153e-07,3.96016644908006e-06,-1.67343241926647e-06,-1.76074575499834e-06,-3.1687688897719e-07,-1.92219493430079e-06,-2.43884849074051e-06,4.23389246398393e-06,-8.68933353051145e-06,-7.73944667008195e-06,3.68961615214974e-07,-2.13310111029047e-06,-6.0937999672252e-07,1.39719615852547e-06,-1.59944677450739e-06,-2.86586915915471e-06,2.00428482053698e-06,-2.45829395475534e-06,9.70616398299282e-07,-6.45218605648317e-08,-2.22229145093006e-06,-7.40858140268793e-07,3.49500633822619e-07,7.42909192080956e-07,-1.37255292660702e-06,3.65222917866567e-06,-5.31065390938739e-06,-6.73164285048136e-07,5.39307464663982e-07,9.82851253359262e-06,-1.59165675978735e-05,1.30487723430738e-06,-7.42023065325619e-07,-1.82865488782205e-06,4.20647241312145e-07,-1.74732990501392e-06,2.97945372118078e-06,-4.56673851509684e-06,-6.70499494835058e-07,-2.79866017791754e-06,1.78769761894015e-06,-7.27773052767429e-06,4.81756853415198e-06,-3.71561232510096e-06,-1.61157668213642e-06,-3.58703045076856e-06,1.49851312981107e-06,-2.41360150893366e-06,-1.64827244540493e-07,-1.99593248681349e-06,-2.1513542796419e-06,-4.3551917893304e-06,-7.56698704804686e-07
-6.89201963370315e-06,-5.06781234956414e-07,-4.00619028178385e-06,-1.74344236664225e-07,-7.54194184455109e-06,-1.1850279631463e-06,-6.01562170102568e-06,-8.6771078101166e-07,-1.16075859397526e-06,-6.72130262697277e-07,-8.12322117143606e-06,-2.30194287749842e-06,-5.56427844243797e-06,-1.26456086241401e-06,-2.95640468398104e-06,-1.50597033679789e-06,-3.56992131865214e-06,-1.61232442353898e-06,-1.79484282714345e-06,8.35931366156991e-07,3.92968795331682e-06,-1.66648025809815e-06,-1.80656549997102e-06,-2.40828547748993e-07,-1.84197830949619e-06,-2.56273977377852e-06,4.16295773740797e-06,-8.51557653414556e-06,-7.54306867538877e-06,2.36499897340773e-07,-2.2366909838785e-06,-5.80438841287134e-07,1.36446901794497e-06,-1.57647575321417e-06,-2.77960347084365e-06,1.95922108419205e-06,-2.46485093738937e-06,9.86166067519597e-07,-1.84348981412895e-07,-2.17836553335738e-06,-7.55548408057491e-07,3.53739723719734e-07,7.22652144562668e-07,-1.35129161389523e-06,4.21194931433917e-06,-5.66933343947649e-06,-7.04104421302534e-07,5.5492078039923e-07,9.6707132110133e-06,-1.5763212903774e-05,1.30708778392657e-06,-7.59584802775618e-07,-1.80474370136507e-06,4.07918471335153e-07,-1.93625510971997e-06,3.13999809282511e-06,-4.5644296780549e-06,-7.34993663447998e-07,-2.69695482449296e-06,1.79071674885665e-06,-7.78526876265911e-06,5.48511734103217e-06,-3.82965759754606e-06,-1.61073874186129e-06,-3.75265950701497e-06,1.53466040838011e-06,-2.37772534870276e-06,-1.71576173097323e-07,-2.24186415433992e-06,-2.02430756436628e-06,-4.21220426912713e-06,-7.94761847959678e-07
-6.98538865643985e-06,-4.83720334861197e-07,-4.00525211967655e-06,-1.47810371556619e-07,-7.66821324710272e-06,-1.15754682694444e-06,-6.06803680152562e-06,-8.70808953090495e-07,-1.38675416051426e-06,-6.79973714643874e-07,-8.03314546809027e-06,-2.28020622359711e-06,-5.66620725785588e-06,-1.27480980620618e-06,-3.02473448441455e-06,-1.50090834449497e-06,-3.79266408063796e-06,-1.60254885383025e-06,-1.82224887566991e-06,8.42004689773726e-07,3.88815186518625e-06,-1.65604319011074e-06,-1.85228872345269e-06,-1.64573672625309e-07,-1.76160370593071e-06,-2.68727826250842e-06,4.09494480808289e-06,-8.34326451910921e-06,-7.3331817153231e-06,9.57495323784999e-08,-2.33761049687027e-06,-5.52549998136672e-07,1.3336291512422e-06,-1.55269647518727e-06,-2.67794628511091e-06,1.89848466294907e-06,-2.46487201807097e-06,9.97855445885643e-07,-3.05236575381681e-07,-2.13110275225225e-06,-7.69299654035832e-07,3.57419081073493e-07,7.01532806660819e-07,-1.32987291669536e-06,4.76498399194724e-06,-6.02362767077592e-06,-7.35867436111415e-07,5.70931243040288e-07,9.50744155146456e-06,-1.56054757928782e-05,1.30992952536959e-06,-7.77266705238147e-07,-1.78128888340684e-06,3.93599458052774e-07,-2.12578045577661e-06,3.29841790039842e-06,-4.55752250969667e-06,-7.99380179779754e-07,-2.59091985923899e-06,1.78802334167369e-06,-8.30089355222548e-06,6.15728310572033e-06,-3.9367163712784e-06,-1.60943768506967e-06,-3.91740142115519e-06,1.56884450615483e-06,-2.33882578486677e-06,-1.78040675865947e-07,-2.48875450080212e-06,-1.89423329441487e-06,-4.05875829411139e-06,-8.33668124276614e-07
-7.07204197346761e-06,-4.6066822687505e-07,-4.00048830397285e-06,-1.21406292214091e-07,-7.78766638144471e-06,-1.13050211499094e-06,-6.11703114752309e-06,-8.73860997255782e-07,-1.61908938482999e-06,-6.88664612799961e-07,-7.93563038713465e-06,-2.25821441078174e-06,-5.76355810158289e-06,-1.28478690578452e-06,-3.08642066904183e-06,-1.4963205296824e-06,-4.01095993346429e-06,-1.59240265024301e-06,-1.85021373336082e-06,8.48887819939089e-07,3.83489347660771e-06,-1.64191356382376e-06,-1.89795797389785e-06,-8.83194826925286e-08,-1.68153296769546e-06,-2.81211055382324e-06,4.03026863043692e-06,-8.17317251031281e-06,-7.11029025976694e-06,-5.26469466021032e-08,-2.43574984637375e-06,-5.25951509964262e-07,1.30458248517279e-06,-1.52813427238759e-06,-2.56183191746169e-06,1.82253421057117e-06,-2.45835383618467e-06,1.00562347334681e-06,-4.27522966056691e-07,-2.08045507124621e-06,-7.82057485563878e-07,3.60505715239752e-07,6.79466530269422e-07,-1.30823817792046e-06,5.31134673037979e-06,-6.37382885680416e-06,-7.68432607877081e-07,5.8731136584544e-07,9.33933046036669e-06,-1.54438494598037e-05,1.31358661595823e-06,-7.95078867372584e-07,-1.75827338191177e-06,3.77764060771733e-07,-2.31561969092649e-06,3.45445165243823e-06,-4.54623800193023e-06,-8.63493267164524e-07,-2.48123364311229e-06,1.77977825007603e-06,-8.82311288445847e-06,6.83266497970117e-06,-4.03675433363775e-06,-1.60765702127963e-06,-4.08093283322897e-06,1.60076506781715e-06,-2.29712233892437e-06,-1.84203644435565e-07,-2.73642237523477e-06,-1.76142547785482e-06,-3.89610323348039e-06,-8.7321612626211e-07
-7.1518799624942e-06,-4.37697204445604e-07,-3.99197798975032e-06,-9.52021619288344e-08,-7.90033605271015e-06,-1.10395777630327e-06,-6.16265303745979e-06,-8.76866169484383e-07,-1.85759113494507e-06,-6.98254981856434e-07,-7.83120523498655e-06,-2.23599444798894e-06,-5.85613039356002e-06,-1.29448668600036e-06,-3.14135405398876e-06,-1.49225730454052e-06,-4.22466686503988e-06,-1.58191084060436e-06,-1.87872166778688e-06,8.56615436162129e-07,3.76927919518327e-06,-1.62388906966252e-06,-1.94360515103292e-06,-1.22770999893827e-08,-1.60223931391811e-06,-2.93686120365567e-06,3.96929256821307e-06,-8.00602864355812e-06,-6.87495789854759e-06,-2.07993609260225e-07,-2.53100502016175e-06,-5.00872385587057e-07,1.27721951471342e-06,-1.50281478690709e-06,-2.43227845262188e-06,1.73191417702984e-06,-2.44532227198841e-06,1.00942607398341e-06,-5.51538901539298e-07,-2.02638690504973e-06,-7.93773317224147e-07,3.62965853706596e-07,6.56368271834917e-07,-1.28632811581029e-06,5.85105517680866e-06,-6.72023272245528e-06,-8.01775407042881e-07,6.04031106801774e-07,9.16702310754791e-06,-1.52788331102827e-05,1.31823245521998e-06,-8.1303637256939e-07,-1.73567881933511e-06,3.60488638019012e-07,-2.50549580455154e-06,3.60784470413475e-06,-4.53081493490182e-06,-9.27164629747455e-07,-2.36858747422424e-06,1.76616217960231e-06,-9.35038902080651e-06,7.50982075138274e-06,-4.12976185772505e-06,-1.60537866835119e-06,-4.24292025713423e-06,1.63012781597316e-06,-2.2528424363014e-06,-1.90048505611041e-07,-2.98467966089116e-06,-1.62618978416373e-06,-3.7255300243721e-06,-9.13197269695835e-07
-7.22483369667133e-06,-4.14878593754134e-07,-3.97981775961822e-06,-6.92671961934313e-08,-8.00628452945987e-06,-1.07797406245342e-06,-6.20496590435242e-06,-8.79823368927002e-07,-2.1020580110938e-06,-7.08792105397694e-07,-7.72042868808785e-06,-2.21357180932461e-06,-5.94374046471223e-06,-1.30390406601619e-06,-3.18945533562327e-06,-1.48876429802025e-06,-4.43366045542745e-06,-1.57109839300511e-06,-1.90775796259083e-06,8.6521777547666e-07,3.69071220126593e-06,-1.60177439032714e-06,-1.98924996562049e-06,6.33391108672039e-08,-1.52420363653512e-06,-3.06113434938871e-06,3.91232915793316e-06,-7.84251279518638e-06,-6.62780522914394e-06,-3.69544915093739e-07,-2.62327714062772e-06,-4.77530748009838e-07,1.2514159767306e-06,-1.47676371949252e-06,-2.2903814187617e-06,1.62725287845077e-06,-2.42583277073147e-06,1.00923678090838e-06,-6.77603793401805e-07,-1.96887582455874e-06,-8.04404818154906e-07,3.64765125274307e-07,6.32153605149483e-07,-1.26408366360124e-06,6.38412657511176e-06,-7.06313206045296e-06,-8.35867434624499e-07,6.21057963931557e-07,8.99116710428761e-06,-1.51109277637291e-05,1.32402861343592e-06,-8.31159207430735e-07,-1.71348561773321e-06,3.41851431242654e-07,-2.69514102320398e-06,3.75834952657701e-06,-4.51150774055682e-06,-9.90224329402367e-07,-2.25368001784236e-06,1.74737395178785e-06,-9.88114647633772e-06,8.18727401871477e-06,-4.21575277411624e-06,-1.60258331058861e-06,-4.40302150316834e-06,1.65664671362101e-06,-2.2062196493114e-06,-1.95559314614329e-07,-3.23333041316895e-06,-1.48884214405574e-06,-3.54836164607693e-06,-9.53397071654288e-07
-7.29086432641433e-06,-3.92282470989611e-07,-3.96412059757731e-06,-4.36693259937709e-08,-8.10559946271593e-06,-1.05260717799966e-06,-6.24404680794778e-06,-8.82731107231018e-07,-2.35225963723234e-06,-7.20317893759076e-07,-7.60388397693481e-06,-2.19097036217595e-06,-6.0262220435974e-06,-1.31303429988688e-06,-3.23067439267738e-06,-1.48588220508024e-06,-4.63783253555072e-06,-1.55998996940203e-06,-1.9373090832645e-06,8.747204631998e-07,3.59863793872646e-06,-1.57538285629932e-06,-2.03489848423943e-06,1.38312183026981e-07,-1.44791070193951e-06,-3.18451554268346e-06,3.85964139628745e-06,-7.68325561188972e-06,-6.36950743053351e-06,-5.36509826372269e-07,-2.71247180890041e-06,-4.56132057170454e-07,1.2270335945267e-06,-1.45000656656384e-06,-2.13730669981275e-06,1.50925990330571e-06,-2.39997053042813e-06,1.00504728388828e-06,-8.06022055051706e-07,-1.90791319286322e-06,-8.13916312243037e-07,3.65868764901019e-07,6.06739728360215e-07,-1.2414467880561e-06,6.91057275642409e-06,-7.40280984887065e-06,-8.70676377612796e-07,6.38357086404998e-07,8.81240867663869e-06,-1.49406318697801e-05,1.33112388286186e-06,-8.49472120062132e-07,-1.69167308990296e-06,3.21931982494744e-07,-2.88429667865248e-06,3.90572592219255e-06,-4.48858427879448e-06,-1.05250166398778e-06,-2.13721182235022e-06,1.7236287629773e-06,-1.04137798671723e-05,8.86352132904768e-06,-4.29476305460088e-06,-1.59925074818121e-06,-4.56088712598244e-06,1.6800460609601e-06,-2.15749192413286e-06,-2.00720847861937e-07,-3.48217002376178e-06,-1.34970729142873e-06,-3.36594343148502e-06,-9.93596463756885e-07
-7.34996224660505e-06,-3.69977390483797e-07,-3.94501475013714e-06,-1.84748684976744e-08,-8.19839158242687e-06,-1.02790896030712e-06,-6.27998481881996e-06,-8.85587483999716e-07,-2.60793604486081e-06,-7.32868284060736e-07,-7.48217393782957e-06,-2.16821231778654e-06,-6.10342660719527e-06,-1.32187290581737e-06,-3.26498939358409e-06,-1.4836466572526e-06,-4.83708972078755e-06,-1.54860969252445e-06,-1.96736281113055e-06,8.8514437587597e-07,3.49254938056982e-06,-1.54453808537884e-06,-2.08054178377157e-06,2.12423175991446e-07,-1.37384529945225e-06,-3.30657376624695e-06,3.81144445024275e-06,-7.52883783494369e-06,-6.10079155527184e-06,-7.08056204792838e-07,-2.79849842309796e-06,-4.36867444938915e-07,1.20392089024493e-06,-1.42256835033339e-06,-1.97428272968191e-06,1.37872283049854e-06,-2.36785054883092e-06,9.96867894767646e-07,-9.37079561276186e-07,-1.84350472727658e-06,-8.22279125047151e-07,3.66241836949361e-07,5.80046450266496e-07,-1.218361275835e-06,7.43039473726474e-06,-7.73953197958008e-06,-9.06165981697726e-07,6.55891399311405e-07,8.63138689258756e-06,-1.4768436781557e-05,1.33965346209989e-06,-8.68004424421897e-07,-1.6702195011409e-06,3.00810588045905e-07,-3.07271296209438e-06,4.04974119301506e-06,-4.46232354233863e-06,-1.11382603092457e-06,-2.01987996388261e-06,1.69515644426519e-06,-1.09466615675233e-05,9.53703922480729e-06,-4.36684940510047e-06,-1.59536023861818e-06,-4.71616188383892e-06,1.70006251159655e-06,-2.10689980351557e-06,-2.05518693944577e-07,-3.73098442255652e-06,-1.20911725546141e-06,-3.17963328208533e-06,-1.03357313296546e-06
-7.40214605273745e-06,-3.48030125353074e-07,-3.92264248026635e-06,6.25179163086673e-09,-8.28479218824438e-06,-1.00392659057285e-06,-6.31287931123678e-06,-8.88390168572673e-07,-2.86879714968914e-06,-7.46472677285285e-07,-7.35591598028918e-06,-2.14531820285177e-06,-6.17522359130391e-06,-1.33041558468368e-06,-3.29240572005567e-06,-1.48208811490738e-06,-5.03135183802533e-06,-1.53698092868301e-06,-1.9979083424754e-06,8.96505532219753e-07,3.37199201481291e-06,-1.50907558645054e-06,-2.12615474442523e-06,2.85451804209398e-07,-1.30248838402694e-06,-3.4268636115546e-06,3.767907737442e-06,-7.37978989607369e-06,-5.82243357458592e-06,-8.83315445890717e-07,-2.88126945157277e-06,-4.19912203099262e-07,1.18191405858792e-06,-1.39447334815266e-06,-1.80259203859734e-06,1.23650328856079e-06,-2.32961752744881e-06,9.84727925079525e-07,-1.0710402556591e-06,-1.77567098262012e-06,-8.29471873165658e-07,3.65849473276117e-07,5.51997143795432e-07,-1.19477347902118e-06,7.94357708266613e-06,-8.07353978317551e-06,-9.42296041888791e-07,6.73621739977971e-07,8.44872799239894e-06,-1.45948221225223e-05,1.34973827666821e-06,-8.86789751985691e-07,-1.64910210675733e-06,2.78567787670638e-07,-3.2601485770922e-06,4.19017026663139e-06,-4.43301331179176e-06,-1.17402776582776e-06,-1.90237286249005e-06,1.66219972879847e-06,-1.14781491539797e-05,1.02062911603808e-05,-4.43208777595826e-06,-1.59089082992493e-06,-4.86848620063095e-06,1.71644699478293e-06,-2.05468465965944e-06,-2.0993934147355e-07,-3.97954933429786e-06,-1.06740981092971e-06,-2.99079186043313e-06,-1.07310288221946e-06
-7.44746130709465e-06,-3.26505421873657e-07,-3.89715873003932e-06,3.04485068148259e-08,-8.36495048730145e-06,-9.8070233896189e-07,-6.34283819957424e-06,-8.91136388491998e-07,-3.13452233653629e-06,-7.61153417551745e-07,-7.22573705481144e-06,-2.12230685065055e-06,-6.24150046685666e-06,-1.33865812883873e-06,-3.31295473120357e-06,-1.48123178132848e-06,-5.22055029539741e-06,-1.5251260893121e-06,-2.0289363536061e-06,9.08815008943938e-07,3.23656849820086e-06,-1.46884430920103e-06,-2.17169501211956e-06,3.57177076075851e-07,-1.23431325823787e-06,-3.54492760170279e-06,3.72915737069153e-06,-7.23659183500243e-06,-5.53525521243155e-06,-1.06138730433848e-06,-2.96069965726395e-06,-4.05424464124116e-07,1.16083789072065e-06,-1.36574482757185e-06,-1.62356227967069e-06,1.08353245419827e-06,-2.28544563285114e-06,9.68675968936422e-07,-1.20814293944807e-06,-1.70444775175124e-06,-8.35480693752785e-07,3.64657122411531e-07,5.22519658603168e-07,-1.17063301591783e-06,8.45008221347702e-06,-8.40504258477501e-06,-9.79022412016726e-07,6.91507003923441e-07,8.26503986992087e-06,-1.44202510915872e-05,1.36148443340399e-06,-9.05865751548855e-07,-1.62829717129693e-06,2.55283889011137e-07,-3.44637030491051e-06,4.32679578346474e-06,-4.40094778667571e-06,-1.23293895259737e-06,-1.78536530692765e-06,1.62501252132342e-06,-1.20065926553862e-05,1.08697342845797e-05,-4.49057180829407e-06,-1.58582168302865e-06,-5.01749762822657e-06,1.72896653196549e-06,-2.00108695437115e-06,-2.13970262637882e-07,-4.22762961213034e-06,-9.24926894987651e-07,-2.80077284199467e-06,-1.11196100332103e-06
-7.48597914619133e-06,-3.0546576836781e-07,-3.86872971480143e-06,5.40556540678786e-08,-8.43903084865109e-06,-9.58273346783577e-07,-6.36997615896263e-06,-8.93822924956337e-07,-3.4047601756059e-06,-7.76925318482302e-07,-7.09226871782947e-06,-2.09919540977683e-06,-6.30216269359934e-06,-1.34659632266134e-06,-3.32669239629813e-06,-1.48109753823081e-06,-5.40462645186221e-06,-1.51306645339059e-06,-2.06043903498926e-06,9.22078880259526e-07,3.08594293012563e-06,-1.42370812380763e-06,-2.21710216159376e-06,4.27377953141197e-07,-1.16978183625359e-06,-3.66029864225089e-06,3.69527896944833e-06,-7.09967360472508e-06,-5.24012060387145e-06,-1.241344863778e-06,-3.03670528376643e-06,-3.93544104973687e-07,1.14050673567266e-06,-1.33640479222636e-06,-1.438556919425e-06,9.20806126907902e-07,-2.23553811605563e-06,9.48780082856476e-07,-1.34859827731897e-06,-1.62988638058122e-06,-8.40299413718321e-07,3.62630806266526e-07,4.91547188139494e-07,-1.1458934275599e-06,8.9498447806868e-06,-8.73421047017566e-06,-1.01629703453113e-06,7.09504298725583e-07,8.08090675576209e-06,-1.42451657638588e-05,1.37498280445907e-06,-9.25273738946495e-07,-1.60777997556074e-06,2.31038526386453e-07,-3.63115249820481e-06,4.45940814929256e-06,-4.36642521714775e-06,-1.29039420510009e-06,-1.66951371166256e-06,1.58385814505853e-06,-1.25303416478521e-05,1.15258260995715e-05,-4.54241123814709e-06,-1.58013237752232e-06,-5.16283230979615e-06,1.73740593757288e-06,-1.94634454386241e-06,-2.17599991441559e-07,-4.47497867065809e-06,-7.82012998778469e-07,-2.61091330928078e-06,-1.14992365492726e-06
-7.51779475658648e-06,-2.84971179124059e-07,-3.83753146999624e-06,7.70164033748665e-08,-8.50721002912224e-06,-9.36671447790811e-07,-6.39441286014288e-06,-8.96446115194438e-07,-3.67912828871335e-06,-7.9379524075827e-07,-6.9561423666076e-06,-2.07599936808942e-06,-6.35713355922036e-06,-1.35422583665641e-06,-3.33369781677617e-06,-1.48169990198352e-06,-5.58353002383111e-06,-1.5008220118517e-06,-2.09241009728265e-06,9.36298180933506e-07,2.91984470831873e-06,-1.37354721732446e-06,-2.26229709019022e-06,4.95834041756135e-07,-1.10934103389082e-06,-3.77250257026741e-06,3.66632080883837e-06,-6.96941577992728e-06,-4.93793281159226e-06,-1.42223960488598e-06,-3.10920322504109e-06,-3.84391886243965e-07,1.12072548966568e-06,-1.30647374177253e-06,-1.24896576912499e-06,7.49379488273922e-07,-2.18012678956567e-06,9.251278543387e-07,-1.49258604971477e-06,-1.55205399608942e-06,-8.43929659169169e-07,3.59737381183955e-07,4.59019087555587e-07,-1.12051279134732e-06,9.44276612466744e-06,-9.06116730404425e-06,-1.05406799238366e-06,7.27569104337622e-07,7.89688415382786e-06,-1.40699824468325e-05,1.39030873712322e-06,-9.45058300198359e-07,-1.58752481689688e-06,2.05910252899639e-07,-3.81427652107474e-06,4.58780555870634e-06,-4.32974555418536e-06,-1.34623142090598e-06,-1.5554516185913e-06,1.53900753062946e-06,-1.30477522121089e-05,1.21730309909695e-05,-4.58773027343185e-06,-1.57380319484347e-06,-5.304126443671e-06,1.74156939545406e-06,-1.89069104300473e-06,-2.20818195615614e-07,-4.7213380367157e-06,-6.3901354223222e-07,-2.42252436323844e-06,-1.18676923929469e-06
-7.54302573263896e-06,-2.65078993868917e-07,-3.80374836351939e-06,9.92769657440818e-08,-8.56967439167369e-06,-9.15923030022047e-07,-6.41627123005297e-06,-8.99001861191523e-07,-3.9572133719654e-06,-8.11761724034523e-07,-6.81798467515081e-06,-2.05273258898382e-06,-6.40635390455377e-06,-1.36154211708915e-06,-3.33407164672059e-06,-1.4830479997928e-06,-5.7572175358614e-06,-1.48841133426115e-06,-2.12484474975748e-06,9.51468892489545e-07,2.7380719391512e-06,-1.3182593956458e-06,-2.30718166631838e-06,5.6232633049466e-07,-1.05341932799806e-06,-3.88106075974647e-06,3.64229723433967e-06,-6.84615061017755e-06,-4.62963022751823e-06,-1.60310653083665e-06,-3.17811021281223e-06,-3.78068816937414e-07,1.10129060938207e-06,-1.27597044835805e-06,-1.05619546453698e-06,5.70361595658245e-07,-2.11947135962465e-06,8.9782635287253e-07,-1.64025267165798e-06,-1.47103364664393e-06,-8.46380905849605e-07,3.55944800427954e-07,4.24881637553431e-07,-1.09445429086702e-06,9.92870875269141e-06,-9.38598391403057e-06,-1.09227958500178e-06,7.45655438720527e-07,7.71349407888929e-06,-1.38950871441359e-05,1.40752188632387e-06,-9.65266852890955e-07,-1.5675050074288e-06,1.79976164364348e-07,-3.99553015452239e-06,4.71179399733296e-06,-4.29120812770978e-06,-1.4002925077745e-06,-1.44378545516934e-06,1.4907373253504e-06,-1.35571937195847e-05,1.28098265849008e-05,-4.62666594756737e-06,-1.5668153761161e-06,-5.4410177442368e-06,1.74128190350524e-06,-1.83435426038222e-06,-2.23615741210111e-07,-4.96643702990714e-06,-4.96273240507678e-07,-2.23688201530987e-06,-1.2222797723192e-06
-7.56181031958749e-06,-2.45843693380434e-07,-3.76757157927507e-06,1.20786820179746e-07,-8.62661711369231e-06,-8.96048939966585e-07,-6.43567573835852e-06,-9.01485643832754e-07,-4.23857137254569e-06,-8.30814675822525e-07,-6.67841323602064e-06,-2.02940735603719e-06,-6.44978173145063e-06,-1.36854027314649e-06,-3.32793441590919e-06,-1.4851455653729e-06,-5.92565080690055e-06,-1.47585145764274e-06,-2.15773964916353e-06,9.67581951275561e-07,2.54049438417616e-06,-1.25776128108005e-06,-2.35163864616945e-06,6.26637982251644e-07,-1.00242351940578e-06,-3.98549274264342e-06,3.62319224981019e-06,-6.73016331650304e-06,-4.31618287055472e-06,-1.78296932503318e-06,-3.24334206588204e-06,-3.74655718536264e-07,1.08199114889785e-06,-1.24491175258038e-06,-8.61659939058148e-07,3.84909633676727e-07,-2.05385860929347e-06,8.67001958270709e-07,-1.79170899081574e-06,-1.38692435390089e-06,-8.4767047160461e-07,3.5122237550432e-07,3.89088747529582e-07,-1.06768673803277e-06,1.04074907629628e-05,-9.70867132864991e-06,-1.13087243023844e-06,7.63716027978427e-07,7.53122063806323e-06,-1.37208311734265e-05,1.4266661663697e-06,-9.85949170587902e-07,-1.5476928745629e-06,1.53311554243448e-07,-4.1747069853929e-06,4.83118723093222e-06,-4.25110935792537e-06,-1.45242408655041e-06,-1.33509056556114e-06,1.43932793140787e-06,-1.40570553830632e-05,1.34347098661375e-05,-4.65936644608998e-06,-1.55915135643759e-06,-5.57314689513678e-06,1.73639057985304e-06,-1.77755471359393e-06,-2.25984748927046e-07,-5.20999258118184e-06,-3.54134470954545e-07,-2.05521841644593e-06,-1.25624224178539e-06
-7.57430554814187e-06,-2.27316731690938e-07,-3.72919757793492e-06,1.41498919040169e-07,-8.67823538955261e-06,-8.77064431640076e-07,-6.45275071454168e-06,-9.03892541398857e-07,-4.52272781927474e-06,-8.5093511987917e-07,-6.53803242044066e-06,-2.00603442096082e-06,-6.4873916937666e-06,-1.37521496352218e-06,-3.31542476528278e-06,-1.48799095388442e-06,-6.08879547430787e-06,-1.4631577973882e-06,-2.19109281559933e-06,9.84623277034012e-07,2.32705592795676e-06,-1.19198939629583e-06,-2.395531862767e-06,6.88555183053685e-07,-9.56735720585174e-07,-4.08531881770263e-06,3.60896318935063e-06,-6.62169352768004e-06,-3.99858857320481e-06,-1.96084553239279e-06,-3.30481304304235e-06,-3.7421296312982e-07,1.06260981930541e-06,-1.21331238226553e-06,-6.66770925709558e-07,1.94222956917486e-07,-1.98360142674578e-06,8.32800060248251e-07,-1.94702837723377e-06,-1.29984107453102e-06,-8.47823452431596e-07,3.45541034163649e-07,3.51602591155466e-07,-1.04018504221337e-06,1.08788802362594e-05,-1.00291740614899e-05,-1.16978359376755e-06,7.81702480625058e-07,7.35050599578434e-06,-1.354752698603e-05,1.44776981848555e-06,-1.00715687329548e-06,-1.52805976794486e-06,1.25989600389153e-07,-4.35160579371534e-06,4.94580678819799e-06,-4.20974050764302e-06,-1.50247817832916e-06,-1.22990753108941e-06,1.38506150340994e-06,-1.45457525249007e-05,1.40462030101087e-05,-4.68598940233788e-06,-1.55079498151242e-06,-5.70015899249638e-06,1.7267658245967e-06,-1.72050423483204e-06,-2.27918641411876e-07,-5.45170919780237e-06,-2.12935649936977e-07,-1.87871348024472e-06,-1.28844994796558e-06
-7.58068528041423e-06,-2.09546384763388e-07,-3.68882654782745e-06,1.61369871516308e-07,-8.72472766306907e-06,-8.58979162738824e-07,-6.46761871491587e-06,-9.06217251344017e-07,-4.80917831739185e-06,-8.72095006656846e-07,-6.39742949706889e-06,-1.98262304986463e-06,-6.519174481178e-06,-1.38156028413901e-06,-3.29669761658874e-06,-1.49157717586569e-06,-6.24661958387089e-06,-1.45034408036056e-06,-2.22490351093141e-06,1.00257382176364e-06,2.09777655165649e-06,-1.12090112679994e-06,-2.43870668821437e-06,7.47868047787532e-07,-9.16710581363172e-07,-4.18006263207595e-06,3.59954439321337e-06,-6.5209367660017e-06,-3.67786903922532e-06,-2.13575175957758e-06,-3.36243532599443e-06,-3.76780378029077e-07,1.04292406691204e-06,-1.18118479705098e-06,-4.72928552218645e-07,-4.63031148553514e-10,-1.90903767335322e-06,7.95384621890506e-07,-2.10624512140096e-06,-1.20991456866841e-06,-8.4687260319128e-07,3.38873573125145e-07,3.12394169183725e-07,-1.01193062062165e-06,1.13425897728049e-05,-1.0347363618806e-05,-1.20894674696169e-06,7.99565466423071e-07,7.17174675973455e-06,-1.3375444235685e-05,1.47084559268926e-06,-1.02894288395701e-06,-1.50857607607003e-06,9.80810863593608e-08,-4.52602994908922e-06,5.05548194358898e-06,-4.16738549018007e-06,-1.550312884854e-06,-1.12873878757527e-06,1.32821993231068e-06,-1.50217325533257e-05,1.46428589187922e-05,-4.706700163083e-06,-1.54173171560301e-06,-5.82170498028199e-06,1.71230233162659e-06,-1.66340467827585e-06,-2.29412181084594e-07,-5.69127908491822e-06,-7.30096288698281e-08,-1.70848696206148e-06,-1.31870381906621e-06
-7.58113819947553e-06,-1.92577614666273e-07,-3.64666086508489e-06,1.80360105307133e-07,-8.76629095332318e-06,-8.41797237642451e-07,-6.48039896950512e-06,-9.08454114212195e-07,-5.09738922760244e-06,-8.94257088009058e-07,-6.25717106699751e-06,-1.95918106423256e-06,-6.54513611305411e-06,-1.38756965848154e-06,-3.27192230609026e-06,-1.49589194954289e-06,-6.39909229155642e-06,-1.43742229991065e-06,-2.25917207427023e-06,1.02140964005068e-06,1.85275379715112e-06,-1.04447555665928e-06,-2.48099077043453e-06,8.04371586896791e-07,-8.82672766356452e-07,-4.26925372511576e-06,3.59485081903937e-06,-6.42804590947164e-06,-3.35506575222887e-06,-2.30670888458262e-06,-3.4161186492191e-06,-3.82377321478952e-07,1.02270716467722e-06,-1.14853906126491e-06,-2.81512131421492e-07,-1.97883109178644e-07,-1.83052888696385e-06,7.54937600255895e-07,-2.26935315973184e-06,-1.11729117162085e-06,-8.44858162114821e-07,3.31194903156382e-07,2.71443796623058e-07,-9.82911743959724e-07,1.17982714930934e-05,-1.06630325743717e-05,-1.24829235392237e-06,8.17254901168287e-07,6.99529082398416e-06,-1.32048061385373e-05,1.49589104554998e-06,-1.05136084857256e-06,-1.4892112537259e-06,6.9654161660148e-08,-4.69778682278289e-06,5.16004970672151e-06,-4.1243187530361e-06,-1.59579306703217e-06,-1.03204553875359e-06,1.26908282370373e-06,-1.54834806538856e-05,1.52232664706987e-05,-4.72167003004892e-06,-1.53194885073939e-06,-5.93744308263459e-06,1.69291994550751e-06,-1.60644674087331e-06,-2.30461498649011e-07,-5.92838243379284e-06,6.53178816814333e-08,-1.54559105651208e-06,-1.34681369272688e-06
-7.57586577535949e-06,-1.76451947559524e-07,-3.60290358122329e-06,1.98434006816269e-07,-8.80311833707355e-06,-8.25517293858852e-07,-6.49120593469492e-06,-9.10597138352543e-07,-5.38679854919264e-06,-9.17374857562323e-07,-6.11779985893457e-06,-1.93571487428431e-06,-6.56529715988689e-06,-1.39323573185024e-06,-3.24128071029583e-06,-1.5009177705913e-06,-6.5461827162005e-06,-1.42440269128796e-06,-2.29389970917968e-06,1.04110198212365e-06,1.59216371140302e-06,-9.62714175168783e-07,-2.5221950414141e-06,8.57866738927736e-07,-8.5491470062019e-07,-4.35243002077098e-06,3.59478153791598e-06,-6.34313258935785e-06,-3.03123571651114e-06,-2.47274726421953e-06,-3.46577010306858e-06,-3.91002921710756e-07,1.0017293143216e-06,-1.11538274750216e-06,-9.38712788364004e-08,-3.9674850985059e-07,-1.7484588156457e-06,7.11658219309463e-07,-2.43630514258968e-06,-1.02213246667731e-06,-8.41827617191578e-07,3.2248228386924e-07,2.28741513304761e-07,-9.53123811785509e-07,1.22455128693707e-05,-1.09758896235961e-05,-1.28774788782723e-06,8.34720139006406e-07,6.82143470576492e-06,-1.30357861642248e-05,1.52288895529878e-06,-1.07446451828696e-06,-1.46993385900262e-06,4.07741447289067e-08,-4.86668722015742e-06,5.25935482306814e-06,-4.08080325765332e-06,-1.6387910196419e-06,-9.40244965558072e-07,1.20792546776271e-06,-1.59295251968781e-05,1.57860554948312e-05,-4.73107448567346e-06,-1.52143572507748e-06,-6.04704023678577e-06,1.66856435893612e-06,-1.54980890563063e-06,-2.31064112903092e-07,-6.16268788249071e-06,2.0172985151788e-07,-1.39100356822765e-06,-1.37259955475236e-06
-7.56508022880604e-06,-1.61207363639515e-07,-3.55775694862583e-06,2.15560040301805e-07,-8.83539662282009e-06,-8.10132626278079e-07,-6.5001479613394e-06,-9.12640023904287e-07,-5.67681701688449e-06,-9.41392557330118e-07,-5.97983189108174e-06,-1.9122295025388e-06,-6.5796919034956e-06,-1.39855027086152e-06,-3.204965381914e-06,-1.5066319984545e-06,-6.68785895637609e-06,-1.41129372441567e-06,-2.32908821977539e-06,1.06161740941946e-06,1.31626127012415e-06,-8.7564145437897e-07,-2.56211498189443e-06,9.0816146550681e-07,-8.33694601013799e-07,-4.42914024834824e-06,3.5992230901042e-06,-6.26626853221522e-06,-2.70744701579234e-06,-2.63291193091387e-06,-3.51129415083698e-06,-4.026364456746e-07,9.79758761480557e-07,-1.08172087334986e-06,8.86825110418635e-08,-5.95753166841245e-07,-1.66323177646573e-06,6.65762092231206e-07,-2.60701185077997e-06,-9.24614858864062e-07,-8.37835414267321e-07,3.127155461475e-07,1.84287417705655e-07,-9.22569554115403e-07,1.26838336916767e-05,-1.12855559781654e-05,-1.32723807604124e-06,8.51910172843655e-07,6.65042140991234e-06,-1.28685051044632e-05,1.55180785088808e-06,-1.09830709573678e-06,-1.45071159695447e-06,1.15033684070322e-08,-5.0325448384733e-06,5.3532497861046e-06,-4.03708857093607e-06,-1.67918713490735e-06,-8.53707738042609e-07,1.14501680616841e-06,-1.63584428628259e-05,1.63299014813735e-05,-4.73509141201084e-06,-1.51018395399257e-06,-6.15017352584207e-06,1.63920764684548e-06,-1.49365651275689e-06,-2.31218942596213e-07,-6.39385314807227e-06,3.35919425856419e-07,-1.24562169800156e-06,-1.39589272714328e-06
-7.54900249999946e-06,-1.46878197567292e-07,-3.51142098584394e-06,2.31710846413207e-07,-8.86330421849115e-06,-7.95631343019928e-07,-6.50732607160797e-06,-9.14576184496585e-07,-5.96682940879677e-06,-9.66245250635954e-07,-5.84375396958686e-06,-1.8887285951951e-06,-6.5883674401372e-06,-1.40350406960849e-06,-3.16317770465731e-06,-1.51300695877871e-06,-6.82408725850877e-06,-1.39810211015972e-06,-2.36473969632942e-06,1.08291793079976e-06,1.02538028959603e-06,-7.83305298339354e-07,-2.6005321146329e-06,9.55071893514319e-07,-8.19234811858584e-07,-4.49894626280001e-06,3.60805269838647e-06,-6.19748690392785e-06,-2.38477418456435e-06,-2.78626777042607e-06,-3.55259289876199e-06,-4.1723775019973e-07,9.56562930170418e-07,-1.04755587352822e-06,2.64883737277833e-07,-7.9357991621141e-07,-1.57527083502684e-06,6.17480191524241e-07,-2.78134195717832e-06,-8.2492905067426e-07,-8.32942609782535e-07,3.01877300851479e-07,1.38091923665872e-07,-8.91259158739695e-07,1.31126843557874e-05,-1.1591563336187e-05,-1.36668517276973e-06,8.68773841536601e-07,6.48243884180016e-06,-1.27030285740045e-05,1.58260264519947e-06,-1.1229405522042e-06,-1.43151136803107e-06,-1.80989381637715e-08,-5.19517575588642e-06,5.4415948557132e-06,-3.99340907968226e-06,-1.71687054580728e-06,-7.72755839517792e-07,1.08061741610337e-06,-1.67688635113837e-05,1.68535300603009e-05,-4.73389931332733e-06,-1.49818767300773e-06,-6.24653160637352e-06,1.60484863375551e-06,-1.43814096098815e-06,-2.3092631088555e-07,-6.62152582371755e-06,4.67591367909354e-07,-1.1102564751863e-06,-1.41653699814984e-06
-7.52786022385151e-06,-1.33495048437003e-07,-3.46409208114376e-06,2.46863320463957e-07,-8.88700918133186e-06,-7.81996547620449e-07,-6.51283283298527e-06,-9.16398765315518e-07,-6.25619605729858e-06,-9.91858961352533e-07,-5.71002148074376e-06,-1.86521441972558e-06,-6.59138272884697e-06,-1.4080868639135e-06,-3.11612607349027e-06,-1.52001006220816e-06,-6.9548313157829e-06,-1.38483281660982e-06,-2.40085615355923e-06,1.10496115681441e-06,7.19932842072083e-07,-6.85777365079442e-07,-2.63721569351089e-06,9.98423483403384e-07,-8.11720466957723e-07,-4.56142522839798e-06,3.62114134920091e-06,-6.13678373387847e-06,-2.06429339907881e-06,-2.93190466691813e-06,-3.58956664089473e-06,-4.34747772015469e-07,9.31909583779012e-07,-1.01288760939395e-06,4.33520170711259e-07,-9.88906691879776e-07,-1.48501580581757e-06,5.67057666839001e-07,-2.95912212558142e-06,-7.23279420646785e-07,-8.27216473246961e-07,2.89953132471096e-07,9.01759388930664e-08,-8.59210326336101e-07,1.35314455667897e-05,-1.18933535318367e-05,-1.40600925768639e-06,8.85260040790503e-07,6.31761876546428e-06,-1.25393649998043e-05,1.61521535832075e-06,-1.1484149239465e-06,-1.41229932428086e-06,-4.79767403172456e-08,-5.35439795645571e-06,5.52425807412158e-06,-3.94998233867538e-06,-1.75173974125347e-06,-6.976607063965e-07,1.01497753589535e-06,-1.71594748462052e-05,1.73557212986216e-05,-4.72767555820677e-06,-1.48544378842127e-06,-6.33581612413642e-06,1.56551309148041e-06,-1.38339904041432e-06,-2.3018794278201e-07,-6.84534433222652e-06,5.9646344115802e-07,-9.85627861979501e-07,-1.43438968670406e-06
-7.50188571969794e-06,-1.21084698622401e-07,-3.41596163614013e-06,2.60998670811465e-07,-8.9066674518199e-06,-7.69206544312368e-07,-6.51675132718561e-06,-9.18100656567589e-07,-6.54425455900343e-06,-1.01815087968468e-06,-5.57905645109761e-06,-1.84168784878601e-06,-6.58880759260581e-06,-1.41228725508793e-06,-3.06402411401524e-06,-1.5276039404416e-06,-7.0800516929707e-06,-1.37148909336437e-06,-2.43743912595953e-06,1.12770046958477e-06,4.00408192172429e-07,-5.8315326248135e-07,-2.67192455922543e-06,1.03805220381385e-06,-8.11298504396503e-07,-4.61617162779719e-06,3.63835675191505e-06,-6.084119480818e-06,-1.74707750628153e-06,-3.06894259574038e-06,-3.62211468535794e-06,-4.55089018754832e-07,9.05568017945548e-07,-9.77713417543263e-07,5.93439518202175e-07,-1.18041278212066e-06,-1.39292108016797e-06,5.14752513457786e-07,-3.14013744013713e-06,-6.19883305004416e-07,-8.20730045094837e-07,2.76931776258995e-07,4.05709637799136e-08,-8.26448256953345e-07,1.39394295015962e-05,-1.21902798699615e-05,-1.44512855900933e-06,9.01317934039305e-07,6.15603628265799e-06,-1.23774641478395e-05,1.64957591583193e-06,-1.17477759492413e-06,-1.39304094261658e-06,-7.8077268168811e-08,-5.51003089398225e-06,5.60111527057248e-06,-3.90700756618267e-06,-1.78370314819481e-06,-6.28641681601486e-07,9.48335153625882e-07,-1.75290269337637e-05,1.78353138670507e-05,-4.71659466510085e-06,-1.47195222980186e-06,-6.41774311280833e-06,1.52125376493936e-06,-1.3295523987747e-06,-2.29006956137782e-07,-7.06493902836578e-06,7.2226772373459e-07,-8.7236055558485e-07,-1.449322632268e-06
-7.471314015311e-06,-1.09670040735872e-07,-3.36721475844617e-06,2.74102458191368e-07,-8.92242129803608e-06,-7.572350649244e-07,-6.51915422629352e-06,-9.19674501752323e-07,-6.83032168941704e-06,-1.04502963481845e-06,-5.45124587852076e-06,-1.81814833197411e-06,-6.58072168815318e-06,-1.41609264472134e-06,-3.00708896500936e-06,-1.53574660085512e-06,-7.19970539621479e-06,-1.35807250357265e-06,-2.4744892239763e-06,1.151085206878e-06,6.73712712473925e-08,-4.75552619702378e-07,-2.70440913725069e-06,1.07380569490099e-06,-8.18077063553837e-07,-4.66279906106218e-06,3.65956617994707e-06,-6.03942076354933e-06,-1.43419091434802e-06,-3.19653664108611e-06,-3.65013645816017e-06,-4.78166026364973e-07,8.77310287827427e-07,-9.4202819899962e-07,7.43555452108107e-07,-1.36678519356677e-06,-1.29945329567346e-06,4.60834099978167e-07,-3.32413216282215e-06,-5.14970182250439e-07,-8.13561654118592e-07,2.62805278228416e-07,-1.06808903676643e-08,-7.9300557131763e-07,1.43358824279145e-05,-1.24816100694745e-05,-1.48395979979917e-06,9.16897160518509e-07,5.99770980406882e-06,-1.22172162275178e-05,1.68560301058492e-06,-1.2020725697345e-06,-1.37370112709946e-06,-1.08351068150994e-07,-5.66189509502347e-06,5.67205004898996e-06,-3.86466430293266e-06,-1.81267967876902e-06,-5.65864788480013e-07,8.8091418904849e-07,-1.78763366127048e-05,1.82912091047648e-05,-4.70082666150852e-06,-1.45771619852912e-06,-6.4920443731209e-06,1.47215022467243e-06,-1.27670714384406e-06,-2.27387847172418e-07,-7.27993344354133e-06,8.44751847619965e-07,-7.70980515312705e-07,-1.46122309965097e-06
-7.43638093193958e-06,-9.92700116498867e-08,-3.31802901707757e-06,2.86164617756632e-07,-8.9343980089222e-06,-7.46051515923168e-07,-6.52010299460724e-06,-9.21112700382299e-07,-7.11369553228145e-06,-1.07239563433902e-06,-5.32694034991934e-06,-1.79459385737606e-06,-6.56721346468982e-06,-1.41948918223648e-06,-2.94553965270934e-06,-1.54439160113586e-06,-7.31374561668547e-06,-1.3445829645259e-06,-2.51200565234072e-06,1.17506086072487e-06,-2.78539292123973e-07,-3.63119036749978e-07,-2.73441355600634e-06,1.10554440431467e-06,-8.32125293642781e-07,-4.70094180171008e-06,3.68463919190961e-06,-6.00258224648328e-06,-1.12668436747647e-06,-3.31388191353178e-06,-3.67353286288934e-06,-5.03865763195673e-07,8.46912470070601e-07,-9.05824549791896e-07,8.82852990811298e-07,-1.54672513030107e-06,-1.20508886545522e-06,4.05581570416378e-07,-3.51081081877557e-06,-4.08780760880964e-07,-8.05794395281205e-07,2.47569139209228e-07,-6.35269633030116e-08,-7.5892216892566e-07,1.47199887162184e-05,-1.27665306670181e-05,-1.52241856671384e-06,9.31948039822616e-07,5.84260149155957e-06,-1.20584516005277e-05,1.72320502440305e-06,-1.23033973625825e-06,-1.354244349009e-06,-1.38752033824627e-07,-5.80981179763072e-06,5.73695375638216e-06,-3.82311124948897e-06,-1.83859924183136e-06,-5.09441854213337e-07,8.12922825459741e-07,-1.82002917990705e-05,1.87223749824253e-05,-4.68053554763627e-06,-1.44274240787528e-06,-6.55846883031607e-06,1.41830854576605e-06,-1.224953583713e-06,-2.25336471947901e-07,-7.48994566488865e-06,9.63680155684522e-07,-6.81912238461351e-07,-1.46999458769532e-06
-7.3973212528521e-06,-8.98995324559784e-08,-3.26857327303854e-06,2.97179466288491e-07,-8.94270886255705e-06,-7.35621242304485e-07,-6.51964722680347e-06,-9.22407404861623e-07,-7.39365782846762e-06,-1.10014146940832e-06,-5.20645294525563e-06,-1.77102090474525e-06,-6.54837912900971e-06,-1.42246172703324e-06,-2.87959558043378e-06,-1.55348824544835e-06,-7.42212166379623e-06,-1.33101879747418e-06,-2.5499856895071e-06,1.19956929263362e-06,-6.3661356234023e-07,-2.46019915947792e-07,-2.76167786554864e-06,1.13314268470444e-06,-8.53473593839784e-07,-4.73025608199053e-06,3.71345023249623e-06,-5.97346865954052e-06,-8.25589626481091e-07,-3.42021833779924e-06,-3.69220784303465e-06,-5.32057995295214e-07,8.14155958520574e-07,-8.69092932671151e-07,1.01039325643735e-06,-1.71895458399842e-06,-1.11031138605223e-06,3.49282140522303e-07,-3.69983960735409e-06,-3.01565971418577e-07,-7.97515565765379e-07,2.31222445461644e-07,-1.17904186279478e-07,-7.24245023712197e-07,1.50908761363196e-05,-1.30441527065492e-05,-1.5604197010695e-06,9.46421774131315e-07,5.69061815328018e-06,-1.19009411033897e-05,1.76228101258762e-06,-1.25961411507783e-06,-1.33463482780667e-06,-1.69237413908681e-07,-5.95360261865305e-06,5.79572543089991e-06,-3.78248529290412e-06,-1.86140321588875e-06,-4.59430024487465e-07,7.44552065094552e-07,-1.84998556735684e-05,1.91278499470416e-05,-4.65587789341977e-06,-1.4270413105757e-06,-6.61678386518e-06,1.35986081430491e-06,-1.17436610439232e-06,-2.2286002527273e-07,-7.69458983736529e-06,1.07883476962424e-06,-6.05476800173326e-07,-1.47555753161825e-06
-7.35436698627695e-06,-8.15694536993081e-08,-3.21900659140016e-06,3.07145696900502e-07,-8.94744836794291e-06,-7.25905803160962e-07,-6.51782411807023e-06,-9.23550511346869e-07,-7.66947653812281e-06,-1.12815238372185e-06,-5.09005839762932e-06,-1.74742439250333e-06,-6.52432162734614e-06,-1.4249938268063e-06,-2.80947514683398e-06,-1.5629818038886e-06,-7.52477907840034e-06,-1.31737678661149e-06,-2.58842412834905e-06,1.22454896736233e-06,-1.00607307803254e-06,-1.24446179826196e-07,-2.78594034290991e-06,1.15648985063357e-06,-8.82114280906613e-07,-4.75042109603309e-06,3.74588112048229e-06,-5.95191694049093e-06,-5.31914083193559e-07,-3.5148352733303e-06,-3.70607005849874e-06,-5.62595667974426e-07,7.78828791828918e-07,-8.31821889123106e-07,1.12531770180589e-06,-1.88222306561796e-06,-1.01560894123854e-06,2.92229309017316e-07,-3.890848131462e-06,-1.93585866537435e-07,-7.88816058271953e-07,2.13767987635336e-07,-1.73739298659428e-07,-6.89027918909691e-07,1.54476223205501e-05,-1.3313518579767e-05,-1.59787771248388e-06,9.60270649629277e-07,5.54161256408062e-06,-1.17443969788375e-05,1.80272175042824e-06,-1.28992509520134e-06,-1.31483675360909e-06,-1.99767797311454e-07,-6.09308924337466e-06,5.8482717278775e-06,-3.74290072892266e-06,-1.8810448756846e-06,-4.15831700069679e-07,6.75974565803098e-07,-1.87740707390219e-05,1.95067466334538e-05,-4.62700159870891e-06,-1.41062730725803e-06,-6.66677660930106e-06,1.29696446424947e-06,-1.12500318149561e-06,-2.19967018134033e-07,-7.89347777409433e-06,1.1900165610435e-06,-5.41890661586428e-07,-1.47784989129654e-06
-7.30774572344603e-06,-7.42865062865481e-08,-3.16947723522122e-06,3.16066362399978e-07,-8.94869375548872e-06,-7.16863253549089e-07,-6.5146580516416e-06,-9.24533644773952e-07,-7.94040860072486e-06,-1.15630680367241e-06,-4.97799246077843e-06,-1.72379762170071e-06,-6.4951496477892e-06,-1.42706771312792e-06,-2.7353944979619e-06,-1.57281375733783e-06,-7.62165989786184e-06,-1.30365224676519e-06,-2.62731268465171e-06,1.24993520418331e-06,-1.38607399108855e-06,1.38812002459042e-09,-2.80693987669185e-06,1.17549119883658e-06,-9.18002649734999e-07,-4.76113973378732e-06,3.78182343811965e-06,-5.93773850454743e-06,-2.46635351846865e-07,-3.5970759232744e-06,-3.71503456600036e-06,-5.95315383837655e-07,7.40727010032281e-07,-7.93998291385104e-07,1.22685194319698e-06,-2.03531454853841e-06,-9.21471319126811e-07,2.34721003165538e-07,-4.08343143184587e-06,-8.5108437343013e-08,-7.79789717049443e-07,1.95212366883856e-07,-2.30949139513106e-07,-6.53331124884433e-07,1.57892622710158e-05,-1.35736099333774e-05,-1.63470721465951e-06,9.73448236938171e-07,5.39538517304052e-06,-1.15884744128631e-05,1.84441082449829e-06,-1.32129566354338e-06,-1.2948145551392e-06,-2.30307075879898e-07,-6.2280931394096e-06,5.89450682240635e-06,-3.70444868302125e-06,-1.89748976100211e-06,-3.78594907716543e-07,6.07343785352338e-07,-1.90220627507142e-05,1.98582554384023e-05,-4.59404484893746e-06,-1.39351892480518e-06,-6.70825519137714e-06,1.22980144970854e-06,-1.07690752124602e-06,-2.16667254010982e-07,-8.08622065932312e-06,1.29704601636117e-06,-4.91265242175951e-07,-1.47682762110906e-06
-7.25767909052864e-06,-6.80532598386806e-08,-3.12012174066629e-06,3.2394884674255e-07,-8.94650468783046e-06,-7.08448428999605e-07,-6.5101602909888e-06,-9.25348138878831e-07,-8.20570287630768e-06,-1.18447692707327e-06,-4.87045144395878e-06,-1.70013222080382e-06,-6.46097664544618e-06,-1.42866431489178e-06,-2.65756641690862e-06,-1.58292206998341e-06,-7.71270304446709e-06,-1.28983909970061e-06,-2.66663938909916e-06,1.27566043965151e-06,-1.77571053093522e-06,1.31246299327666e-07,-2.82441842544116e-06,1.19006899294792e-06,-9.61058375264985e-07,-4.76213907398499e-06,3.82118083712042e-06,-5.93072166509186e-06,2.93041019008994e-08,-3.6663414854207e-06,-3.71902439650766e-06,-6.30038056348323e-07,6.99656034640583e-07,-7.5560763511121e-07,1.31430931019761e-06,-2.17705467518795e-06,-8.28387162187257e-07,1.77057676746161e-07,-4.27715230932119e-06,2.35916416734409e-08,-7.70532670783042e-07,1.75566083075886e-07,-2.894410158686e-07,-6.17221024974625e-07,1.61147967576601e-05,-1.38233565520629e-05,-1.67082338043127e-06,9.85909587379305e-07,5.251686162664e-06,-1.14327736918374e-05,1.88722573057049e-06,-1.35374164503465e-06,-1.27453322402572e-06,-2.60822384624799e-07,-6.35843530823293e-06,5.93435228881526e-06,-3.66719673392599e-06,-1.91071597593255e-06,-3.47614117997486e-07,5.38793445969787e-07,-1.92430445323252e-05,2.01816479589978e-05,-4.55713529546242e-06,-1.3757389518027e-06,-6.74104992057469e-06,1.15857725964632e-06,-1.03010632628088e-06,-2.12971803532107e-07,-8.27243083059449e-06,1.39976398495698e-06,-4.53607248992537e-07,-1.47246501971115e-06
-7.20438130033905e-06,-6.28680914100582e-08,-3.07106407790027e-06,3.30804822482686e-07,-8.94092317982569e-06,-7.00613231700317e-07,-6.5043287761295e-06,-9.25985012770844e-07,-8.46460325697056e-06,-1.2125293679804e-06,-4.76759190536483e-06,-1.67641809494558e-06,-6.42191989582387e-06,-1.42976328987101e-06,-2.57619935895751e-06,-1.59324149134896e-06,-7.79784482398739e-06,-1.27592995970485e-06,-2.70638798479696e-06,1.30165449228785e-06,-2.17401876492119e-06,2.64869639792189e-07,-2.83812354063568e-06,1.20016340505478e-06,-1.01116720876026e-06,-4.75317066321321e-06,3.86387127298471e-06,-5.93063424788075e-06,2.95002221681866e-07,-3.72209500076314e-06,-3.71797195106875e-06,-6.66569796549912e-07,6.55432062244973e-07,-7.16634373049821e-07,1.38709414610011e-06,-2.30631821757836e-06,-7.36841072382388e-07,1.19540378145101e-07,-4.47154391695969e-06,1.32234324329882e-07,-7.61142661492193e-07,1.54843597801589e-07,-3.4911315157211e-07,-5.80769693955514e-07,1.64232014037854e-05,-1.40616460496768e-05,-1.7061424101563e-06,9.97611419433905e-07,5.11021783690429e-06,-1.12768430080812e-05,1.93103892928078e-06,-1.38727097451573e-06,-1.25395871087657e-06,-2.91284017660662e-07,-6.48393609390655e-06,5.96773695915521e-06,-3.63118874630071e-06,-1.92071440840391e-06,-3.22731535819599e-07,4.70437334871585e-07,-1.94363196814005e-05,2.0476280283568e-05,-4.51638947880201e-06,-1.35731452045003e-06,-6.76501439509177e-06,1.08351978371105e-06,-9.84611682842066e-07,-2.08892976252417e-07,-8.45172363011695e-06,1.49803230029713e-06,-4.28819756100217e-07,-1.46475495913959e-06
-7.148057819164e-06,-5.87251679162587e-08,-3.0224149096839e-06,3.36650191506706e-07,-8.93197373820017e-06,-6.9330691970519e-07,-6.4971480360418e-06,-9.26434946051115e-07,-8.716351944285e-06,-1.24032585504675e-06,-4.66953052592661e-06,-1.65264338250534e-06,-6.37809958654148e-06,-1.43034307439298e-06,-2.49149664420097e-06,-1.60370388858962e-06,-7.87701953767237e-06,-1.26191622944431e-06,-2.74653735075041e-06,1.32784482033033e-06,-2.57998062957827e-06,4.01978087537666e-07,-2.84781093767816e-06,1.20573339820678e-06,-1.06818293492794e-06,-4.73401060201145e-06,3.90982917878491e-06,-5.93722645503986e-06,5.49602437109208e-07,-3.76386485719412e-06,-3.71182017614943e-06,-7.04703061736465e-07,6.0788345711992e-07,-6.77062287854593e-07,1.44470484678046e-06,-2.42203676583342e-06,-6.47310695364955e-07,6.24688071378784e-08,-4.66611260370443e-06,2.40535547595407e-07,-7.51718385801969e-07,1.33063366386411e-07,-4.09855218971482e-07,-5.44054432926269e-07,1.6713436211732e-05,-1.42873341040565e-05,-1.74058200589424e-06,1.00851228984956e-06,4.97063731787433e-06,-1.1120181928391e-05,1.97571882055604e-06,-1.42188301676819e-06,-1.23305840488859e-06,-3.21665317004729e-07,-6.60441506312189e-06,5.99459676319122e-06,-3.59644492032796e-06,-1.92748886111166e-06,-3.03738885793838e-07,4.02369445538048e-07,-1.96012861355837e-05,2.07415960862294e-05,-4.47191249928803e-06,-1.33827712870764e-06,-6.7800265267787e-06,1.00487803874675e-06,-9.40421066134933e-07,-2.044442881902e-07,-8.62371931601318e-06,1.59173426584326e-06,-4.16704026712136e-07,-1.45370899191238e-06
-7.08890416610841e-06,-5.56144452256209e-08,-2.97427096207152e-06,3.41505006843032e-07,-8.91966373516042e-06,-6.86476401300858e-07,-6.48858923014891e-06,-9.26688254294894e-07,-8.9601928869885e-06,-1.26772397997022e-06,-4.57634418863452e-06,-1.62879442170395e-06,-6.32963795827817e-06,-1.4303809508778e-06,-2.40365581690167e-06,-1.6142386084054e-06,-7.95016021195616e-06,-1.24778820650611e-06,-2.78706096199458e-06,1.35415676875995e-06,-2.99252821074867e-06,5.42271048428418e-07,-2.85324708769557e-06,1.20675752825485e-06,-1.13192956168659e-06,-4.70445946111232e-06,3.95900759699678e-06,-5.9502340411047e-06,7.92298495033286e-07,-3.79124790613039e-06,-3.70052351491925e-06,-7.44218065673073e-07,5.56852126083361e-07,-6.36874898534806e-07,1.48673665592394e-06,-2.52320667301408e-06,-5.60263808780184e-07,6.13938055903179e-09,-4.86034098728449e-06,3.48208619282076e-07,-7.42358855451774e-07,1.1024783802189e-07,-4.71548949009748e-07,-5.07157263975675e-07,1.69844552674953e-05,-1.44992549135868e-05,-1.7740618444461e-06,1.01857274690003e-06,4.83255951264679e-06,-1.09622454945416e-05,2.02113062422686e-06,-1.45756793993421e-06,-1.21180169624552e-06,-3.51942530192536e-07,-6.71969095584007e-06,6.01487455273181e-06,-3.56296205938683e-06,-1.93105608738549e-06,-2.90379680920216e-07,3.34664426242506e-07,-1.97374395231276e-05,2.09771294328663e-05,-4.42379792698946e-06,-1.31866260087415e-06,-6.78598947313023e-06,9.2292076563118e-07,-8.97517958676986e-07,-1.99640424233197e-07,-8.78804501960014e-06,1.68077500028961e-06,-4.16962063746468e-07,-1.43935733342607e-06
-7.02710485316709e-06,-5.35216861220838e-08,-2.92671451588824e-06,3.45393374455356e-07,-8.90398400943717e-06,-6.80066535557117e-07,-6.47861031845588e-06,-9.26734866040613e-07,-9.19537536184127e-06,-1.29457799111087e-06,-4.48807025885814e-06,-1.60485573055352e-06,-6.27665850094603e-06,-1.42985313271251e-06,-2.3128681703532e-06,-1.62477286667392e-06,-8.01719943246356e-06,-1.2335351997017e-06,-2.82792638509989e-06,1.38051380774922e-06,-3.41054825198075e-06,6.8542827696183e-07,-2.854211790005e-06,1.20323463859424e-06,-1.20220370628096e-06,-4.66434206212612e-06,4.01138029726015e-06,-5.96938185537605e-06,1.02233900726215e-06,-3.80391215346321e-06,-3.6840486537028e-06,-7.84884421914296e-07,5.0219485892415e-07,-5.96055891449452e-07,1.51288426767269e-06,-2.60889730494638e-06,-4.76155439922001e-07,-4.91566719128955e-08,-5.05369122728695e-06,4.54965631398832e-07,-7.33162773633643e-07,8.64234282260959e-08,-5.34068807643904e-07,-4.70164387926169e-07,1.72352163977992e-05,-1.46962315700059e-05,-1.80650404410556e-06,1.02775546738268e-06,4.69556028536584e-06,-1.08024488739311e-05,2.06713718005422e-06,-1.49430613750615e-06,-1.1901606060117e-06,-3.82094632251848e-07,-6.82958169160256e-06,6.02851991476709e-06,-3.53071404343104e-06,-1.93144573139591e-06,-2.82351917190004e-07,2.67378258900545e-07,-1.9844376184175e-05,2.11825071834879e-05,-4.37212793237224e-06,-1.29851098831338e-06,-6.78283246550037e-06,8.37934905804279e-07,-8.55872572949178e-07,-1.94497195243066e-07,-8.94433672692145e-06,1.7650816389068e-06,-4.29199862587455e-07,-1.42174871633294e-06
-6.96283246053856e-06,-5.24284988322729e-08,-2.87981301795425e-06,3.48343334790218e-07,-8.88490965929752e-06,-6.74020438326627e-07,-6.46715634250837e-06,-9.26564301770846e-07,-9.42115766546549e-06,-1.32073962601532e-06,-4.40470702316668e-06,-1.58081000390844e-06,-6.2192852041802e-06,-1.42873486562652e-06,-2.21931842360906e-06,-1.63523216301404e-06,-8.07807024725411e-06,-1.21914565281808e-06,-2.86909480119392e-06,1.40683776764578e-06,-3.83288687044225e-06,8.31110855188102e-07,-2.8505006744363e-06,1.19518441794846e-06,-1.27877712996053e-06,-4.61350716564239e-06,4.0669439020292e-06,-5.99438777426414e-06,1.23903169926885e-06,-3.80159899611465e-06,-3.66237509455631e-06,-8.26462969310822e-07,4.43784618349354e-07,-5.54589564697776e-07,1.52294423351646e-06,-2.67825954260339e-06,-3.95425036984945e-07,-1.03135161619531e-07,-5.24560846279574e-06,5.60518893770185e-07,-7.24227919170805e-07,6.16204697587676e-08,-5.97282723084661e-07,-4.33165608966025e-07,1.74646906403735e-05,-1.48770861324164e-05,-1.83783362125879e-06,1.03602538115995e-06,4.55917975943914e-06,-1.06401724560923e-05,2.11359968909918e-06,-1.53206769115563e-06,-1.16811046068078e-06,-4.12103110656521e-07,-6.93390441220172e-06,6.03548897873819e-06,-3.49965248324994e-06,-1.92870017966907e-06,-2.7931110478799e-07,2.00549071414868e-07,-1.99217957509855e-05,2.13574508926654e-05,-4.31697361377187e-06,-1.2778664135088e-06,-6.77051151893749e-06,7.50223966913964e-07,-8.15442666690732e-07,-1.89031490130926e-07,-9.09224125663649e-06,1.84460338910456e-06,-4.52931328642558e-07,-1.40095011437143e-06
-6.89624683477471e-06,-5.23123977725964e-08,-2.83361880541698e-06,3.5038672398191e-07,-8.86240097932308e-06,-6.68279792517637e-07,-6.45415979268454e-06,-9.26165655238839e-07,-9.63681087702046e-06,-1.34605897612391e-06,-4.32621423214226e-06,-1.55663813054185e-06,-6.1576418582387e-06,-1.42700054439606e-06,-2.12318453029334e-06,-1.64554071685712e-06,-8.13270709822358e-06,-1.2046072728642e-06,-2.91052055118913e-06,1.4330490742984e-06,-4.258354459509e-06,9.78962258583466e-07,-2.84192758044886e-06,1.18264779113419e-06,-1.36139937376437e-06,-4.55182710354705e-06,4.12572001129629e-06,-6.02496699206449e-06,1.44174735233772e-06,-3.78412498797217e-06,-3.63549559316914e-06,-8.68707717493156e-07,3.81511763169834e-07,-5.12461275194631e-07,1.51681705700854e-06,-2.73053433571386e-06,-3.18493717531216e-07,-1.55520727389263e-07,-5.4355243779769e-06,6.64582382521651e-07,-7.15650534038653e-07,3.58731460398173e-08,-6.61052851177215e-07,-3.96253731026413e-07,1.76718715087419e-05,-1.50406493346971e-05,-1.86797893299535e-06,1.04334978612934e-06,4.42292568785708e-06,-1.04747673031033e-05,2.16037840700911e-06,-1.57081187212379e-06,-1.1456305917886e-06,-4.41951718054227e-07,-7.03247554824509e-06,6.0357442203215e-06,-3.46970752891686e-06,-1.92287433416968e-06,-2.80873542248756e-07,1.34197997139571e-07,-1.9969503222369e-05,2.15017781592983e-05,-4.25839549947216e-06,-1.25677685894118e-06,-6.74901000738292e-06,6.60106287908894e-07,-7.76174438568596e-07,-1.83261223056855e-07,-9.23141820635052e-06,1.91931143903692e-06,-4.87582817654961e-07,-1.37704633505268e-06
-6.82749440245736e-06,-5.31468884027563e-08,-2.78816893947382e-06,3.51559014166557e-07,-8.83640450584084e-06,-6.62785162921987e-07,-6.4395410471861e-06,-9.25527577955388e-07,-9.84162265566978e-06,-1.37038537739162e-06,-4.25251371901081e-06,-1.53231923142866e-06,-6.09185140448477e-06,-1.42462384349165e-06,-2.02463760252022e-06,-1.65562192100671e-06,-8.18104675509888e-06,-1.18990716038575e-06,-2.95215070679878e-06,1.45906698455913e-06,-4.68573075825998e-06,1.12860950668498e-06,-2.82832676831425e-06,1.16568711626107e-06,-1.44980046258192e-06,-4.47919737273767e-06,4.18775727451507e-06,-6.0608365707333e-06,1.62992342348105e-06,-3.75138312903731e-06,-3.60341651094242e-06,-9.11367849210487e-07,3.15285186885891e-07,-4.69657880280388e-07,1.49450880004335e-06,-2.76506105471908e-06,-2.45761620159737e-07,-2.06048541467205e-07,-5.6228608639839e-06,7.66873195852357e-07,-7.07524718036905e-07,9.21940718930757e-09,-7.2523637258819e-07,-3.59523931528584e-07,1.78557841398764e-05,-1.51857700201736e-05,-1.89687210114825e-06,1.04969845367899e-06,4.28627685542658e-06,-1.03055608854788e-05,2.20733327990962e-06,-1.61048668843098e-06,-1.12270505041811e-06,-4.71626202453993e-07,-7.12511090968452e-06,6.0292542593761e-06,-3.44078881553713e-06,-1.91403531283153e-06,-2.86619760170161e-07,6.83300215870684e-08,-1.99874105375526e-05,2.16154034360553e-05,-4.19644420873337e-06,-1.23529389785748e-06,-6.71833908937741e-06,5.67913215447031e-07,-7.38003493683855e-07,-1.77205275389183e-07,-9.36154184506763e-06,1.989198718604e-06,-5.32498259075369e-07,-1.35013948290141e-06
-6.75670760354522e-06,-5.49015781613252e-08,-2.74348515280932e-06,3.51899131837589e-07,-8.80685416173948e-06,-6.57476317652232e-07,-6.42320888550036e-06,-9.24638268291477e-07,-1.0034901047388e-05,-1.39356832124512e-06,-4.18349010924309e-06,-1.50783071877826e-06,-6.02203533999107e-06,-1.4215778603324e-06,-1.9238419392776e-06,-1.66539880798073e-06,-8.22302924892435e-06,-1.17503194071525e-06,-2.99392467872423e-06,1.48480981816081e-06,-5.11377006920812e-06,1.27966439710965e-06,-2.80955493222943e-06,1.14438616869892e-06,-1.5436936582177e-06,-4.39553619121143e-06,4.25313332792133e-06,-6.10172009479112e-06,1.80306731582482e-06,-3.70334367660378e-06,-3.56615813603075e-06,-9.54189720563676e-07,2.45033352599452e-07,-4.26168168648173e-07,1.45613206224636e-06,-2.78128545822319e-06,-1.7760538965973e-07,-2.54465924396876e-07,-5.80703375174799e-06,8.67113006083503e-07,-6.99941840956759e-07,-1.82991338258041e-08,-7.89686320178523e-07,-3.2307311817412e-07,1.80154944391056e-05,-1.53113244926578e-05,-1.92444941265909e-06,1.05504372247318e-06,4.1486865026132e-06,-1.01318630482786e-05,2.25432450123796e-06,-1.65102849147025e-06,-1.09932333157666e-06,-5.01114026267855e-07,-7.21162581013273e-06,6.01599364832762e-06,-3.41278654112171e-06,-1.9022620757362e-06,-2.96098091763787e-07,2.93478403626606e-09,-1.99755377081101e-05,2.16983383561215e-05,-4.13116126168999e-06,-1.21347235941712e-06,-6.67853797244814e-06,4.73987204794051e-07,-7.00855870412973e-07,-1.70883431601714e-07,-9.48230293555651e-06,2.05427951290416e-06,-5.86944826247473e-07,-1.32034829695215e-06
-6.68400445466679e-06,-5.75423151321712e-08,-2.69957391988551e-06,3.51449253044723e-07,-8.77367250541905e-06,-6.52292558468338e-07,-6.40506108801582e-06,-9.23485466930295e-07,-1.02159782812265e-05,-1.41545838039428e-06,-4.11899166004144e-06,-1.48314837440631e-06,-5.94831318232479e-06,-1.41783526994907e-06,-1.82095514981889e-06,-1.67479452372462e-06,-8.25859880883593e-06,-1.15996789617886e-06,-3.03577387380277e-06,1.51019518132043e-06,-5.54120660434831e-06,1.43172482190838e-06,-2.78549299803719e-06,1.11884990238535e-06,-1.64277823940852e-06,-4.30078401869196e-06,4.32195651418519e-06,-6.14735226720466e-06,1.96075926533179e-06,-3.64005447348735e-06,-3.5237550234392e-06,-9.9691880422976e-07,1.70705207395659e-07,-3.81983276875657e-07,1.40190626946812e-06,-2.77876717579985e-06,-1.14375826784927e-07,-3.00533859094979e-07,-5.98745659134858e-06,9.65029494784547e-07,-6.92989982608702e-07,-4.66373270339461e-08,-8.54252434532658e-07,-2.86999274425363e-07,1.81501182534048e-05,-1.5416225944199e-05,-1.95065169157725e-06,1.05936057854035e-06,4.00958578373815e-06,-9.95297215340434e-06,2.30121297125903e-06,-1.6923616540328e-06,-1.07548109770417e-06,-5.30404086151317e-07,-7.2918352358524e-06,5.99594265083666e-06,-3.38557267266376e-06,-1.88764497249537e-06,-3.08828354874014e-07,-6.20126716564092e-08,-1.99340135715272e-05,2.17506916563651e-05,-4.06258002676809e-06,-1.19136992045244e-06,-6.62967400620027e-06,3.7867985866315e-07,-6.64649120056045e-07,-1.64316308227228e-07,-9.59341047176516e-06,2.11458892926116e-06,-6.50119114439611e-07,-1.28780736780614e-06
-6.60948824647989e-06,-6.1031355403542e-08,-2.65642665540459e-06,3.50254574689626e-07,-8.73677207676328e-06,-6.47173060860289e-07,-6.38498512579569e-06,-9.22056460096749e-07,-1.03842145290827e-05,-1.43590814329674e-06,-4.05883125460831e-06,-1.4582464456718e-06,-5.87080199579454e-06,-1.4133684897611e-06,-1.7161283557182e-06,-1.68373280285471e-06,-8.28770478929425e-06,-1.14470109967409e-06,-3.07762140650275e-06,1.53514017935986e-06,-5.96675993528353e-06,1.58437616505957e-06,-2.75604769391263e-06,1.08920399153987e-06,-1.74674227050807e-06,-4.19490305803625e-06,4.39436732320382e-06,-6.19748332381542e-06,2.10265480447952e-06,-3.56164077587926e-06,-3.47625639373736e-06,-1.03930152044024e-06,9.22709661148334e-08,-3.37097087949825e-07,1.3321572570883e-06,-2.75718661782811e-06,-5.63957279167111e-08,-3.44028394626782e-07,-6.16354444765727e-06,1.06035775806144e-06,-6.86753405875033e-07,-7.5746632774799e-08,-9.18782041375391e-07,-2.51400799519717e-07,1.82588304858366e-05,-1.54994340174358e-05,-1.9754246394329e-06,1.06262672175754e-06,3.86838729260754e-06,-9.76818134242132e-06,2.34786065498295e-06,-1.73439832505458e-06,-1.05118087927872e-06,-5.59486445410606e-07,-7.36555406486069e-06,5.969087016376e-06,-3.35900226542042e-06,-1.87028521135026e-06,-3.2430564964069e-07,-1.26551173192716e-07,-1.98630761855054e-05,2.1772668761649e-05,-3.99072678489023e-06,-1.16904662324117e-06,-6.57184259355914e-06,2.82349916705737e-07,-6.29293428290505e-07,-1.57525275302193e-07,-9.69459331254224e-06,2.17018222031857e-06,-7.21153777357402e-07,-1.25266624101575e-06
-6.53324736546027e-06,-6.53275593355434e-08,-2.61402003673732e-06,3.48363062083891e-07,-8.69605680599952e-06,-6.42057223028447e-07,-6.3628589280228e-06,-9.20338091358565e-07,-1.05390015901448e-05,-1.45477315008893e-06,-4.00278754103703e-06,-1.43309775718769e-06,-5.78961597312116e-06,-1.40814985282204e-06,-1.60950644655029e-06,-1.69213843974036e-06,-8.3103025508099e-06,-1.12921754972159e-06,-3.11938186355044e-06,1.55956161795728e-06,-6.38914051803067e-06,1.73719277947657e-06,-2.72115288264126e-06,1.05559416747828e-06,-1.85526530587085e-06,-4.0778767662526e-06,4.47053951916425e-06,-6.25188320251878e-06,2.22848676000675e-06,-3.46830455482356e-06,-3.42372662264437e-06,-1.0810868969018e-06,9.72276243049361e-09,-2.91506608133552e-07,1.2473161565311e-06,-2.71635118837102e-06,-3.95793029412478e-09,-3.8474193154099e-07,-6.3347176734441e-06,1.15284167077265e-06,-6.81312063153414e-07,-1.05575287522001e-07,-9.83120941103861e-07,-2.16375848460785e-07,1.83408740165298e-05,-1.5559964481629e-05,-1.99871914245604e-06,1.0648226210645e-06,3.72448870394297e-06,-9.57678486605595e-06,2.39413084657167e-06,-1.77703826094001e-06,-1.02643272428206e-06,-5.88352088279995e-07,-7.43259733770987e-06,5.93541776164132e-06,-3.33291486877704e-06,-1.85029425651362e-06,-3.42004289499812e-07,-1.90732669752073e-07,-1.97630728187938e-05,2.17645710466252e-05,-3.91562187823187e-06,-1.146564330366e-06,-6.50516690846749e-06,1.853612072771e-07,-5.94692764661451e-07,-1.50532370172875e-07,-9.78560168856553e-06,2.22113396702229e-06,-7.99124561239254e-07,-1.21508841482175e-06
-6.45535522148213e-06,-7.03866163670972e-08,-2.57231643924704e-06,3.45825173900734e-07,-8.65142343573302e-06,-6.36885021970956e-07,-6.33855170529158e-06,-9.18316782277702e-07,-1.06797664531355e-05,-1.47191282229446e-06,-3.95060618431531e-06,-1.40767383683663e-06,-5.70486606322958e-06,-1.40215178755248e-06,-1.50122836298889e-06,-1.6999377504308e-06,-8.32635425021843e-06,-1.11350330655118e-06,-3.16096111896437e-06,1.58337619330775e-06,-6.80705526080052e-06,1.88973954141246e-06,-2.68077064479322e-06,1.01818537257173e-06,-1.96802097295194e-06,-3.94970940908579e-06,4.55068093239805e-06,-6.3103454295717e-06,2.33806674680856e-06,-3.36032325331156e-06,-3.3662458456056e-06,-1.1220280027046e-06,-7.69248308183567e-08,-2.45212318771405e-07,1.14791759297e-06,-2.65620064281975e-06,4.267642891728e-08,-4.22484382938798e-07,-6.5004056176999e-06,1.24223520034012e-06,-6.76741135804186e-07,-1.36068484437924e-07,-1.04711430049574e-06,-1.82021676298068e-07,1.83955683091683e-05,-1.55968989440203e-05,-2.02049154515857e-06,1.06593156162629e-06,3.57727658356762e-06,-9.37808442942617e-06,2.43988835217517e-06,-1.82016873239705e-06,-1.0012547705404e-06,-6.16992701293185e-07,-7.49278058422195e-06,5.89493097460445e-06,-3.30713599252199e-06,-1.82779316032157e-06,-3.61381891123165e-07,-2.54621381421745e-07,-1.96344594488975e-05,2.1726794734618e-05,-3.83728090671959e-06,-1.12398613601276e-06,-6.42979740982569e-06,8.80805722969061e-08,-5.60746045970581e-07,-1.4336020385589e-07,-9.86620855986786e-06,2.26753712636492e-06,-8.83057671642812e-07,-1.17525024076148e-06
-6.37587026687576e-06,-7.61612974970155e-08,-2.53126447488182e-06,3.42693566196506e-07,-8.60276291980882e-06,-6.31597374840841e-07,-6.3119248136583e-06,-9.15978562007152e-07,-1.08059746936232e-05,-1.48719137884372e-06,-3.90200121235309e-06,-1.38194505541369e-06,-5.61665964008221e-06,-1.39534700180842e-06,-1.39142739062681e-06,-1.70705902127697e-06,-8.33582951596877e-06,-1.09754462847361e-06,-3.20225619973626e-06,1.60650067087631e-06,-7.21921310599592e-06,2.04157347993698e-06,-2.63489210614753e-06,9.77160754599405e-07,-2.08467938283441e-06,-3.81042569375224e-06,4.63503388848052e-06,-6.37269066721534e-06,2.43128613155964e-06,-3.23804799930394e-06,-3.30391067987218e-06,-1.16188312262209e-06,-1.67634411832505e-07,-1.98218499777481e-07,1.03459715817995e-06,-2.57681139661096e-06,8.3279433496417e-08,-4.57084207568874e-07,-6.66005023190398e-06,1.32830366254763e-06,-6.73110608056645e-07,-1.67168565498211e-07,-1.11060753839468e-06,-1.48433990469443e-07,1.84223175523416e-05,-1.56093944091066e-05,-2.0407038898808e-06,1.06593968676644e-06,3.42613040812268e-06,-9.17139550010418e-06,2.48499960128408e-06,-1.8636645074132e-06,-9.75673720902013e-07,-6.45400483762748e-07,-7.54592021773227e-06,5.84762766284497e-06,-3.28147861931439e-06,-1.80291183219072e-06,-3.81883648062997e-07,-3.18292766887749e-07,-1.94777996657359e-05,2.16598293627502e-05,-3.75571594147492e-06,-1.10137575253659e-06,-6.34591114671826e-06,-9.12422433352668e-09,-5.27348302073317e-07,-1.36031860301978e-07,-9.93621080785268e-06,2.30950194978925e-06,-9.71937413965352e-07,-1.13333973510395e-06
-6.29483610680568e-06,-8.26017339666621e-08,-2.49079963191914e-06,3.39022777149996e-07,-8.54996179592711e-06,-6.26136503945162e-07,-6.28283266096356e-06,-9.13309105926392e-07,-1.09171336765664e-05,-1.50047873149973e-06,-3.85665647116456e-06,-1.35588078034584e-06,-5.52510021609379e-06,-1.38770866903587e-06,-1.28023146177042e-06,-1.71343294067521e-06,-8.33870601473779e-06,-1.08132810786002e-06,-3.24315520603066e-06,1.62885205199648e-06,-7.62433060439575e-06,2.19224547925355e-06,-2.5835380076979e-06,9.32720520135157e-07,-2.20490932964902e-06,-3.66007051004209e-06,4.72387523177629e-06,-6.4387698387379e-06,2.50811644844422e-06,-3.10190128813834e-06,-3.23683503009852e-06,-1.20041667248898e-06,-2.62345494744073e-07,-1.50533521542609e-07,9.0808804705471e-07,-2.47839954743988e-06,1.17657681277904e-07,-4.88389312696622e-07,-6.81310954640064e-06,1.41082491283642e-06,-6.70484878032587e-07,-1.98815223131393e-07,-1.17344719865614e-06,-1.15706315576819e-07,1.84206180970464e-05,-1.55966923677096e-05,-2.05932412144345e-06,1.06483603660331e-06,3.27042680800053e-06,-8.95605352077045e-06,2.52933269510456e-06,-1.90738791278656e-06,-9.49725206213839e-07,-6.7356798775218e-07,-7.59183401466046e-06,5.79351367341717e-06,-3.25574476084918e-06,-1.77578824330237e-06,-4.02946799404921e-07,-3.81832240676153e-07,-1.92937628921996e-05,2.15642557459351e-05,-3.67093673566333e-06,-1.07879688440802e-06,-6.25371085670307e-06,-1.05886594363782e-07,-4.94391836140303e-07,-1.28570789020658e-07,-9.99543025454908e-06,2.34715477966995e-06,-1.06471405818856e-06,-1.08955530818895e-06
-6.21228171194344e-06,-8.96557199392271e-08,-2.45084501936387e-06,3.34868893858722e-07,-8.4929035536003e-06,-6.20446303418532e-07,-6.2511236677891e-06,-9.10293783287336e-07,-1.10127955448077e-05,-1.51165135308474e-06,-3.81422722781316e-06,-1.32944954487544e-06,-5.4302872093378e-06,-1.37921061417202e-06,-1.16776347039561e-06,-1.71899301062644e-06,-8.3349699323997e-06,-1.06484080608353e-06,-3.28353729163233e-06,1.65034772780035e-06,-8.02113746479583e-06,2.34130205149075e-06,-2.52675901853341e-06,8.85080658162703e-07,-2.32838025825324e-06,-3.49870879611246e-06,4.81751590148162e-06,-6.50846674993512e-06,2.5686092553119e-06,-2.95237415391577e-06,-3.16515090491174e-06,-1.23739988892247e-06,-3.60974395518313e-07,-1.02170102171297e-07,7.69216713576801e-07,-2.3613223706514e-06,1.45653340903621e-07,-5.16267825198465e-07,-6.95906099557653e-06,1.48959046667882e-06,-6.68922408023052e-07,-2.30945710194125e-07,-1.23548180453917e-06,-8.39293753793278e-08,1.83900649160099e-05,-1.55581270750142e-05,-2.07632625546073e-06,1.06261258441756e-06,3.10954401772727e-06,-8.73141996731218e-06,2.57275740133367e-06,-1.95118897790073e-06,-9.23454024685463e-07,-7.01487986488973e-07,-7.63034169773498e-06,5.73259971207783e-06,-3.22972705772702e-06,-1.74656756601969e-06,-4.24005278978518e-07,-4.45333605996331e-07,-1.90831218468065e-05,2.1440743386371e-05,-3.58295192086527e-06,-1.05631259581395e-06,-6.15342386349876e-06,-2.01843218459684e-07,-4.61767372951129e-07,-1.21000691737388e-07,-1.00437145079199e-05,2.3806367334311e-06,-1.16031188161955e-06,-1.04410441897233e-06
-6.12822174202042e-06,-9.72690363209884e-08,-2.41131221674344e-06,3.30289202372369e-07,-8.43147001330099e-06,-6.14472704399987e-07,-6.21664128986181e-06,-9.06917713450186e-07,-1.10925599737146e-05,-1.52059311166107e-06,-3.77434194917472e-06,-1.30261923437667e-06,-5.33231577144961e-06,-1.36982749695916e-06,-1.05414160186333e-06,-1.72367593504965e-06,-8.32461638185295e-06,-1.04807038614449e-06,-3.32327271052173e-06,1.67090562062972e-06,-8.4083820620086e-06,2.48828717696765e-06,-2.46463579027671e-06,8.34471539954428e-07,-2.45476399729185e-06,-3.3264255243002e-06,4.91630004968699e-06,-6.58170016501317e-06,2.61289542867977e-06,-2.79002285760222e-06,-3.08900914313579e-06,-1.27261134984563e-06,-4.63414262874031e-07,-5.3145527613111e-08,6.18897471540476e-07,-2.22607814348689e-06,1.6714496507563e-07,-5.40608728507053e-07,-7.09740456995393e-06,1.56440654184048e-06,-6.68475414994171e-07,-2.63495057523726e-07,-1.2965626894859e-06,-5.31904960465051e-08,1.83303568890491e-05,-1.54931327910631e-05,-2.09169050848052e-06,1.05926427105901e-06,2.94286650050494e-06,-8.4968882008668e-06,2.61514510621481e-06,-1.99490566530258e-06,-8.96914249787774e-07,-7.29153368313157e-07,-7.66126563497017e-06,5.66490148165176e-06,-3.20321041779428e-06,-1.71540124729715e-06,-4.44494501012429e-07,-5.08897215938684e-07,-1.88467491867729e-05,2.12900472850545e-05,-3.49177017757736e-06,-1.03398467674019e-06,-6.04530078123829e-06,-2.96636124644133e-07,-4.29365187277818e-07,-1.13345404058066e-07,-1.00809376331293e-05,2.41010228713303e-06,-1.25763733623852e-06,-9.9720216420451e-07
-6.04265697503402e-06,-1.05385792483916e-07,-2.37210222009237e-06,3.2534182238857e-07,-8.36554270278316e-06,-6.08164034108035e-07,-6.179225091484e-06,-9.03165829756356e-07,-1.11560766624025e-05,-1.52719606332551e-06,-3.73660424830413e-06,-1.27535729118314e-06,-5.23127667516019e-06,-1.35953499055199e-06,-9.39479668679872e-07,-1.72742198224272e-06,-8.30764972421502e-06,-1.03100524054796e-06,-3.36222293499458e-06,1.690444313814e-06,-8.78483688147506e-06,2.63274420828931e-06,-2.39727875038594e-06,7.81136402674221e-07,-2.58373626547292e-06,-3.14332578495468e-06,5.02060372587275e-06,-6.65842533283193e-06,2.64118390904414e-06,-2.61546513050743e-06,-3.00857993369827e-06,-1.30583739711636e-06,-5.69535253216328e-07,-3.48183342561278e-09,4.58126101935335e-07,-2.07330432237044e-06,1.82048055672688e-07,-5.6132236072263e-07,-7.22766576815774e-06,1.63509501446603e-06,-6.69189601715273e-07,-2.96396298519584e-07,-1.35654479993016e-06,-2.35730335589454e-08,1.82413008315715e-05,-1.54012498807332e-05,-2.10540338821177e-06,1.05478903726328e-06,2.7697897133604e-06,-8.25188907663632e-06,2.65636873453086e-06,-2.03836419300024e-06,-8.70169202374505e-07,-7.56557052390009e-07,-7.68443165807973e-06,5.59043994634443e-06,-3.17597368198117e-06,-1.68244601493132e-06,-4.63856217571832e-07,-5.72627912271975e-07,-1.85856132951234e-05,2.11130041295709e-05,-3.39740136616069e-06,-1.01187301256848e-06,-5.92961403161006e-06,-3.8991474130761e-07,-3.97076201798669e-07,-1.05628773333057e-07,-1.01070006486875e-05,2.43571777237623e-06,-1.35558727508575e-06,-9.4906981484365e-07
-5.95557482466653e-06,-1.13948782475944e-07,-2.33310646590269e-06,3.20085328702601e-07,-8.29500419172412e-06,-6.01471363565301e-07,-6.1387118465705e-06,-8.99022949700004e-07,-1.12030475238046e-05,-1.53136119611764e-06,-3.70059496097639e-06,-1.2476309387947e-06,-5.12725625441271e-06,-1.34830995370833e-06,-8.23887437535918e-07,-1.73017531943385e-06,-8.28408377456792e-06,-1.01363461148593e-06,-3.40024085056372e-06,1.70888317115928e-06,-9.14930387543065e-06,2.774217834507e-06,-2.32482763510072e-06,7.25329732034391e-07,-2.71497796036171e-06,-2.94953494116779e-06,5.13083314403645e-06,-6.7386349543327e-06,2.65375991432786e-06,-2.42937601664361e-06,-2.92405301739617e-06,-1.33687253546186e-06,-6.79184844926829e-07,4.67940518655958e-08,2.87972636744293e-07,-1.90377423746086e-06,1.90315378192214e-07,-5.78340767828431e-07,-7.34939831887302e-06,1.70149428053613e-06,-6.71103929105712e-07,-3.29580700374246e-07,-1.41528746645739e-06,4.84417249785015e-09,1.81228142346293e-05,-1.52821297008393e-05,-2.11745774271654e-06,1.04918785352715e-06,2.58972498872754e-06,-7.99589628753325e-06,2.69630264602055e-06,-2.08137945347635e-06,-8.4329128534537e-07,-7.83691923769364e-07,-7.69967000075192e-06,5.50924172003606e-06,-3.14779130552423e-06,-1.64786281720407e-06,-4.81543380201373e-07,-6.36632801465077e-07,-1.83007732117679e-05,2.09105278617125e-05,-3.29985760608685e-06,-9.90034960290395e-07,-5.80665618139769e-06,-4.81337913812523e-07,-3.64793043220566e-07,-9.78745339634014e-08,-1.01218318488208e-05,2.45765980235707e-06,-1.45305716541346e-06,-8.99933314752367e-07
