S1_D1_HbO,S1_D1_HbR,S1_D2_HbO,S1_D2_HbR,S1_D20_HbO,S1_D20_HbR,S2_D2_HbO,S2_D2_HbR,S2_D3_HbO,S2_D3_HbR,S2_D21_HbO,S2_D21_HbR,S3_D3_HbO,S3_D3_HbR,S3_D4_HbO,S3_D4_HbR,S3_D22_HbO,S3_D22_HbR,S4_D5_HbO,S4_D5_HbR,S4_D6_HbO,S4_D6_HbR,S4_D7_HbO,S4_D7_HbR,S4_D17_HbO,S4_D17_HbR,S4_D8_HbO,S4_D8_HbR,S4_D23_HbO,S4_D23_HbR,S5_D7_HbO,S5_D7_HbR,S5_D10_HbO,S5_D10_HbR,S5_D8_HbO,S5_D8_HbR,S5_D9_HbO,S5_D9_HbR,S5_D24_HbO,S5_D24_HbR,S6_D10_HbO,S6_D10_HbR,S6_D11_HbO,S6_D11_HbR,S6_D12_HbO,S6_D12_HbR,S6_D9_HbO,S6_D9_HbR,S6_D25_HbO,S6_D25_HbR,S7_D11_HbO,S7_D11_HbR,S7_D12_HbO,S7_D12_HbR,S7_D13_HbO,S7_D13_HbR,S7_D14_HbO,S7_D14_HbR,S7_D18_HbO,S7_D18_HbR,S7_D26_HbO,S7_D26_HbR,S8_D15_HbO,S8_D15_HbR,S8_D16_HbO,S8_D16_HbR,S8_D19_HbO,S8_D19_HbR,S8_D9_HbO,S8_D9_HbR,S8_D27_HbO,S8_D27_HbR
-1.11302621809177e-06,-2.91136650446502e-07,-9.02921705699059e-07,-1.50069803648614e-06,-6.18713613310152e-07,-1.08205714926098e-06,-1.23335569418435e-06,-1.36234625559883e-06,-4.50988734094281e-06,-2.59939398894264e-06,-1.30841341233681e-05,-7.67456501005994e-07,8.81215003480835e-07,-1.73006895543545e-06,1.62084857146666e-06,-2.80769424254087e-06,-1.75362873187477e-06,-1.48638432238883e-06,-2.31834540291328e-07,-8.72557472449943e-07,4.81470665523635e-07,-8.50303033184459e-07,1.11803919816007e-07,-1.71360015251101e-06,-8.27404130248171e-07,-5.69012844695284e-07,1.02059822721234e-07,-1.35724847591957e-06,1.00527834324386e-06,-5.25292525470053e-07,-1.90843445806913e-06,-6.20940047429225e-07,1.63477116966628e-06,-3.87701696584225e-06,-7.01560814524379e-07,-7.49244175838812e-07,-1.43921926537085e-06,-9.52636468729072e-07,1.08944636950113e-06,-1.72542697912314e-06,2.81089379588788e-06,-4.46766742972984e-06,-1.49446312043491e-06,-2.16563388805471e-06,-1.20219516263781e-06,-5.91708055841007e-06,-3.53831568564722e-06,-1.2988248325005e-06,8.26319199194993e-07,3.7379798449238e-07,1.74211446763245e-06,-2.18305221594279e-06,1.62012736999037e-06,-2.5968833681594e-06,2.69961467983893e-06,-1.69902326149735e-06,-6.77859884580586e-07,1.53960897184002e-07,3.81937502590107e-06,-2.06025340739708e-06,-1.51506152966529e-06,8.83681939809789e-08,-1.79584589083506e-06,-1.24904851893442e-08,3.60488019246288e-08,-2.00816830277686e-06,-4.35399559614223e-07,-2.5404883898775e-07,-1.14587550197116e-06,-1.62035107380274e-06,-4.20402829710019e-06,6.88709514368521e-07
-1.13144747866782e-06,-2.65390266569113e-07,-9.46746410857424e-07,-1.47737813838955e-06,-6.79542944464933e-07,-1.03181871230218e-06,-1.29568825293868e-06,-1.33876517722632e-06,-4.52958644161101e-06,-2.55717664924853e-06,-1.31916741564422e-05,-7.24563738519962e-07,8.58224033145727e-07,-1.69532535444798e-06,1.51069462586768e-06,-2.75600725525258e-06,-1.74643903091813e-06,-1.47567335666152e-06,-2.90638127318951e-07,-8.56345633390838e-07,4.07482791281627e-07,-8.14117913340885e-07,-3.32064684720109e-08,-1.65661095934006e-06,-9.24830711110381e-07,-5.24676623325983e-07,-7.34578043659928e-09,-1.30574929693157e-06,9.09102138515866e-07,-5.25179195067369e-07,-1.93081741541724e-06,-6.06613170293053e-07,1.65982295199293e-06,-3.86232061871632e-06,-7.02076222909658e-07,-7.32445151609117e-07,-1.46590534515028e-06,-9.20967511922369e-07,1.09260002147125e-06,-1.65292906068028e-06,2.84628780109064e-06,-4.48764867264942e-06,-1.50694311237921e-06,-2.14473533456752e-06,-1.28713862100565e-06,-5.80008489379277e-06,-3.560351346938e-06,-1.27678496661206e-06,8.73239734091249e-07,4.31552917155051e-07,1.65770513460329e-06,-2.14272170633936e-06,1.60671102510271e-06,-2.57783977041157e-06,2.62086514406853e-06,-1.6550891887769e-06,-7.13089127124292e-07,1.95741987704913e-07,3.7805091069809e-06,-2.05769559078694e-06,-1.37245036565145e-06,8.40120682427151e-08,-1.86068871515809e-06,3.15291121334769e-09,-9.20377847182049e-08,-1.90321155341317e-06,-4.9492656005771e-07,-2.3785932588976e-07,-1.20674561909097e-06,-1.60656687654802e-06,-4.34376051774503e-06,6.87684422719713e-07
-1.14866599384003e-06,-2.39454946786086e-07,-9.8866637940592e-07,-1.45241963288543e-06,-7.38410609096642e-07,-9.81426113796515e-07,-1.35539567090597e-06,-1.31424301784848e-06,-4.54579342871181e-06,-2.5124472765107e-06,-1.32840492771691e-05,-6.82727859463423e-07,8.35593971888867e-07,-1.65938486116917e-06,1.40261220303404e-06,-2.70275657664118e-06,-1.73621882302146e-06,-1.46427924026648e-06,-3.48821546362385e-07,-8.39594572173582e-07,3.36168646113689e-07,-7.78299118941443e-07,-1.76326924115391e-07,-1.59842697067604e-06,-1.01872759578683e-06,-4.80114000495251e-07,-1.14605816298589e-07,-1.25407485473291e-06,8.15242245662079e-07,-5.24695961206809e-07,-1.95092418457148e-06,-5.91435493065665e-07,1.681489579213e-06,-3.84196675072802e-06,-7.02566459554152e-07,-7.15830865229892e-07,-1.49074705731838e-06,-8.88852985174498e-07,1.09512779861867e-06,-1.5808197455701e-06,2.87712496285841e-06,-4.50257409625272e-06,-1.5169614568859e-06,-2.12156764523795e-06,-1.3651895830988e-06,-5.68162513764893e-06,-3.57824671177886e-06,-1.25397240781874e-06,9.20490956703646e-07,4.87635009725437e-07,1.5722910035783e-06,-2.09934736107404e-06,1.59090121941495e-06,-2.55502115992466e-06,2.54087884946662e-06,-1.60920460688325e-06,-7.45640180262674e-07,2.37817270535434e-07,3.73739858751364e-06,-2.05248531873427e-06,-1.22022479618291e-06,7.60633689547582e-08,-1.9214481812163e-06,1.76899831790054e-08,-2.19309005595327e-07,-1.79699953490295e-06,-5.53222166232562e-07,-2.21614368820112e-07,-1.2672319462437e-06,-1.5904779399218e-06,-4.47775446814822e-06,6.85357159478215e-07
-1.16458455202104e-06,-2.13444302959834e-07,-1.02852657881973e-06,-1.42592577092177e-06,-7.94967170476263e-07,-9.30975821943682e-07,-1.41226168085155e-06,-1.2888246432639e-06,-4.55838885837536e-06,-2.46530520736804e-06,-1.33611594105689e-05,-6.41837486494748e-07,8.13626365211199e-07,-1.622310853548e-06,1.29707895417564e-06,-2.6481042518782e-06,-1.72245568640585e-06,-1.45219344642361e-06,-4.06125390644044e-07,-8.22372363327678e-07,2.67985865565833e-07,-7.43003485315016e-07,-3.16896391723968e-07,-1.53931368960487e-06,-1.1085724959321e-06,-4.35530477529481e-07,-2.19148192194908e-07,-1.20249446858747e-06,7.24165113284686e-07,-5.23810691959548e-07,-1.96862378463629e-06,-5.7550697570304e-07,1.69976543896344e-06,-3.81608880450601e-06,-7.03075898003092e-07,-6.9943990043912e-07,-1.51364971416002e-06,-8.56412497016032e-07,1.09688672862541e-06,-1.50919181482411e-06,2.90395816273601e-06,-4.51268005143467e-06,-1.52444497819854e-06,-2.096250898679e-06,-1.43614583307489e-06,-5.56215532461348e-06,-3.59183673698337e-06,-1.23044571473343e-06,9.67991382769051e-07,5.41909467641842e-07,1.48617581678614e-06,-2.0531016561615e-06,1.5729288866853e-06,-2.52865630506099e-06,2.45996676905255e-06,-1.56155406219611e-06,-7.75299224323411e-07,2.80086056895116e-07,3.69042786091456e-06,-2.04474926346331e-06,-1.05865559738181e-06,6.45805360719289e-08,-1.97767962479972e-06,3.0934438648445e-08,-3.4512894957353e-07,-1.68981319894973e-06,-6.09949325532508e-07,-2.05358331032345e-07,-1.32682064312445e-06,-1.57218996580043e-06,-4.6054568530596e-06,6.81812264513265e-07
-1.17911003784391e-06,-1.87471870344738e-07,-1.06617921066166e-06,-1.39800559152882e-06,-8.48877412452711e-07,-8.80562173463331e-07,-1.466085074154e-06,-1.26255766126494e-06,-4.56725933505171e-06,-2.41586067847526e-06,-1.34229532639608e-05,-6.01781698926124e-07,7.92618086205465e-07,-1.58417394476316e-06,1.19455884608213e-06,-2.5922168514751e-06,-1.70464995591806e-06,-1.43941123146559e-06,-4.62293835075894e-07,-8.04747540988854e-07,2.03376866367441e-07,-7.08384889848975e-07,-4.54266929433892e-07,-1.47953720096202e-06,-1.1938570128484e-06,-3.91133138840262e-07,-3.20416559170168e-07,-1.15127546131568e-06,6.36328479090006e-07,-5.22494158534381e-07,-1.98379073111796e-06,-5.58931325952353e-07,1.71465608291948e-06,-3.78484169606545e-06,-7.0365303899653e-07,-6.83309068270115e-07,-1.53452485031433e-06,-8.23767096830438e-07,1.09773121851822e-06,-1.438133520497e-06,2.92734279615868e-06,-4.51820909150453e-06,-1.52932871600841e-06,-2.06891330835142e-06,-1.49984804096268e-06,-5.4421072540423e-06,-3.60096816232831e-06,-1.20626619941311e-06,1.01566114421231e-06,5.94248782237362e-07,1.39966549978224e-06,-2.0041676384096e-06,1.55302566037833e-06,-2.49898209789212e-06,2.37844229116442e-06,-1.51232891164741e-06,-8.01866973700058e-07,3.22446186443799e-07,3.63998975894586e-06,-2.03462158365552e-06,-8.88052534244713e-07,4.96383169342687e-08,-2.02895871642089e-06,4.27061227020717e-08,-4.68872077601887e-07,-1.58193165220287e-06,-6.64778315216501e-07,-1.89135204695523e-07,-1.38499412848899e-06,-1.55181809479681e-06,-4.72632241717229e-06,6.77130962941721e-07
-1.19215430925039e-06,-1.6165025106559e-07,-1.10148482913083e-06,-1.36877317970868e-06,-8.99822704591361e-07,-8.30277382501197e-07,-1.51668124309458e-06,-1.23549212264434e-06,-4.5722987863971e-06,-2.36423403760861e-06,-1.3469428767142e-05,-5.62451134371637e-07,7.72858796485718e-07,-1.54505159581899e-06,1.09549872878169e-06,-2.53526464270886e-06,-1.68232036811556e-06,-1.42593174906384e-06,-5.17076495654685e-07,-7.8678864977575e-07,1.42765418724313e-07,-6.74593132601223e-07,-5.87808029398552e-07,-1.41936247546107e-06,-1.27409038508842e-06,-3.47129220702932e-07,-4.17874083579891e-07,-1.10068150214102e-06,5.52177633749283e-07,-5.20720183705453e-07,-1.9963064298678e-06,-5.41815108137412e-07,1.72617787655863e-06,-3.74840072863733e-06,-7.04350227573374e-07,-6.6747321592186e-07,-1.55329100747674e-06,-7.91038384225153e-07,1.09751335375884e-06,-1.36772848868063e-06,2.94783249252433e-06,-4.51940787073629e-06,-1.53155675946218e-06,-2.03969022534555e-06,-1.55617987782687e-06,-5.32188915695558e-06,-3.60550054815067e-06,-1.18149737674374e-06,1.06342172254681e-06,6.4453331984843e-07,1.31306552805517e-06,-1.95273753434104e-06,1.53142179522053e-06,-2.46624165356728e-06,2.29661874215982e-06,-1.46172591636125e-06,-8.25160701603923e-07,3.64794668226762e-07,3.58648216160925e-06,-2.02224273633067e-06,-7.0876364220776e-07,3.13271460527337e-08,-2.07488486841659e-06,5.28323859183724e-08,-5.8992676355105e-07,-1.47363190699141e-06,-7.17389179058951e-07,-1.72988390437043e-07,-1.44123564753411e-06,-1.52948584677388e-06,-4.83981894398734e-06,6.71390804155739e-07
-1.20363503376844e-06,-1.36090268473007e-07,-1.13431341114872e-06,-1.33834687545881e-06,-9.47503238862173e-07,-7.80211572914335e-07,-1.56388358344516e-06,-1.20768020748016e-06,-4.57340974337283e-06,-2.31055486081753e-06,-1.35006332144962e-05,-5.23739038130896e-07,7.54628468157505e-07,-1.50502766622529e-06,1.00032501024343e-06,-2.47742073619102e-06,-1.65500961945009e-06,-1.41175813579949e-06,-5.70230261980181e-07,-7.68563805137077e-07,8.65533121663088e-08,-6.41772841652095e-07,-7.16910856674903e-07,-1.35905168925349e-06,-1.34880317999062e-06,-3.03724664100373e-07,-5.11007095608866e-07,-1.05097097941146e-06,4.72141705700932e-07,-5.18465767417592e-07,-2.00606055489897e-06,-5.24266818646111e-07,1.73435757268737e-06,-3.70696034717768e-06,-7.0522330961902e-07,-6.51965039857835e-07,-1.56987448829914e-06,-7.5834760500318e-07,1.09608324072351e-06,-1.29805564432049e-06,2.96597495930136e-06,-4.51652512434879e-06,-1.53108303184444e-06,-2.00872309280849e-06,-1.6050677728427e-06,-5.20188465146474e-06,-3.60530727150832e-06,-1.15620439688537e-06,1.11119568207466e-06,6.9265189570114e-07,1.22667828366975e-06,-1.89901129573718e-06,1.50834413008825e-06,-2.43068239361588e-06,2.21480688684571e-06,-1.40994578860236e-06,-8.45016160370554e-07,4.07028322142214e-07,3.53030455369715e-06,-2.00775824747018e-06,-5.21174305633101e-07,9.75246240345146e-09,-2.11508448949229e-06,6.11493879281792e-08,-7.07698698491587e-07,-1.36518868925532e-06,-7.67474118988502e-07,-1.56960479826593e-07,-1.49503387727848e-06,-1.50532401506005e-06,-4.94543227622851e-06,6.64665370688885e-07
-1.21347648063755e-06,-1.10900138108564e-07,-1.16454536802455e-06,-1.30684844154659e-06,-9.91640133311541e-07,-7.3045282389123e-07,-1.60754474173738e-06,-1.17917590020112e-06,-4.57050459096017e-06,-2.25496099519616e-06,-1.35166631280024e-05,-4.85542241539687e-07,7.38194988996265e-07,-1.46419190529167e-06,9.09440452875215e-07,-2.41886020799005e-06,-1.62228977993847e-06,-1.39689756930665e-06,-6.21521087215058e-07,-7.50140266930942e-07,3.51171369845245e-08,-6.10062410617127e-07,-8.4099237533052e-07,-1.29886257231577e-06,-1.41755090170862e-06,-2.61122664863498e-07,-5.9932859053251e-07,-1.0023954110042e-06,3.96630002636674e-07,-5.15711188857088e-07,-2.01295239677917e-06,-5.0639593834086e-07,1.73923180338567e-06,-3.66073274456221e-06,-7.06331238654487e-07,-6.36814907254421e-07,-1.58421007992525e-06,-7.25814741714462e-07,1.09328938130296e-06,-1.22918915321843e-06,2.9823079782874e-06,-4.50980973981135e-06,-1.52787202168466e-06,-1.97615836246491e-06,-1.64648034181144e-06,-5.08245196117452e-06,-3.60027647530804e-06,-1.13045346669282e-06,1.1589064008823e-06,7.38502324505828e-07,1.14080042786248e-06,-1.84319509655901e-06,1.48401411159702e-06,-2.39255413488762e-06,2.13331243234775e-06,-1.35719170606946e-06,-8.61289377504987e-07,4.49044419171787e-07,3.47185456264924e-06,-1.99131745102398e-06,-3.25706146252169e-07,-1.49660320800493e-08,-2.1492140636212e-06,6.75033272904083e-08,-8.21614154084096e-07,-1.25687428235024e-06,-8.14739823602036e-07,-1.41093041462584e-07,-1.54588751728494e-06,-1.47946953091593e-06,-5.04267130639032e-06,6.57024057144898e-07
-1.22161026713227e-06,-8.61846606720841e-08,-1.19207248882356e-06,-1.27440219924031e-06,-1.03197739563441e-06,-6.8108721896413e-07,-1.64753769325985e-06,-1.1500346563792e-06,-4.56350675475498e-06,-2.19759754848893e-06,-1.35176638615437e-05,-4.47762051650329e-07,7.23811872944196e-07,-1.42263938743524e-06,8.2322111012959e-07,-2.35975919931653e-06,-1.58376749885755e-06,-1.38136130187997e-06,-6.70725720540285e-07,-7.31584029473143e-07,-1.11947956036689e-08,-5.79592975665164e-07,-9.59499330144842e-07,-1.23904679907273e-06,-1.47991748542942e-06,-2.19522235177966e-07,-6.82381558880868e-07,-9.55197900672081e-07,3.26028446373623e-07,-5.12440085320426e-07,-2.01689216936319e-06,-4.88311972774606e-07,1.74084648616708e-06,-3.60994633426653e-06,-7.07735647439401e-07,-6.22050688222356e-07,-1.59624174803632e-06,-6.93557608892499e-07,1.08897906633169e-06,-1.16119838060027e-06,2.99735557822213e-06,-4.49950893047178e-06,-1.52189945852187e-06,-1.94214638366757e-06,-1.6804275209694e-06,-4.96392337073701e-06,-3.59031196545301e-06,-1.10431126630336e-06,1.20647779445593e-06,7.81991936361876e-07,1.05572031540072e-06,-1.7854997972207e-06,1.4586458980168e-06,-2.35210720701226e-06,2.05243356094572e-06,-1.30366780917266e-06,-8.73858309303791e-07,4.90741320167442e-07,3.41152451478572e-06,-1.97307220629742e-06,-1.22815738007136e-07,-4.26951674445841e-08,-2.17696303190946e-06,7.17515895704648e-08,-9.31123098767277e-07,-1.14895838952422e-06,-8.58909715933629e-07,-1.25426411718396e-07,-1.59330981777907e-06,-1.4520643125662e-06,-5.13107288853725e-06,6.48531918186068e-07
-1.22797605877262e-06,-6.20444424508046e-08,-1.21679880804065e-06,-1.24113414215837e-06,-1.06828374156529e-06,-6.32198889424866e-07,-1.68375664071957e-06,-1.12031306395986e-06,-4.55235179430574e-06,-2.138615845802e-06,-1.35038289622982e-05,-4.10305039268096e-07,7.11716095923712e-07,-1.38046989587291e-06,7.42013422499467e-07,-2.30029399723749e-06,-1.53908894355719e-06,-1.36516467262696e-06,-7.17633368180792e-07,-7.12959430709887e-07,-5.20653722183085e-08,-5.50487439395174e-07,-1.07191205433047e-06,-1.17984843390439e-06,-1.53551864746285e-06,-1.79116790780934e-07,-7.59742123345996e-07,-9.09611649311722e-07,2.60696135246151e-07,-5.08639508685708e-07,-2.01780226443352e-06,-4.70123491242103e-07,1.73925614323972e-06,-3.5548441078132e-06,-7.09500400087331e-07,-6.07697599898671e-07,-1.60592330191561e-06,-6.61690964336829e-07,1.08299877192522e-06,-1.09414786746054e-06,3.01162440171355e-06,-4.48586652103215e-06,-1.5131529341348e-06,-1.90684027565023e-06,-1.70695944524905e-06,-4.84660489172873e-06,-3.57533405181084e-06,-1.07784436671081e-06,1.25383402498697e-06,8.23038045551834e-07,9.71715476445704e-07,-1.72613939347608e-06,1.43244456341966e-06,-2.30959062230401e-06,1.97245851645113e-06,-1.24957769824797e-06,-8.826243357506e-07,5.32019112190785e-07,3.34969804765076e-06,-1.95317560464844e-06,8.70068318686531e-08,-7.32891461833239e-08,-2.19805645918986e-06,7.37638067609647e-08,-1.03570216167975e-06,-1.04170799697785e-06,-8.9972610406719e-07,-1.09999491484519e-07,-1.63683300278721e-06,-1.42325411106869e-06,-5.21020662666369e-06,6.39249583443956e-07
-1.23252222364833e-06,-3.85751484969357e-08,-1.23864139340579e-06,-1.20717103908293e-06,-1.10035426561392e-06,-5.83870045145557e-07,-1.71611772794876e-06,-1.09006850141791e-06,-4.53698838250462e-06,-2.07817236982747e-06,-1.34753992955547e-05,-3.73083719274327e-07,7.02126074250982e-07,-1.33778725989727e-06,6.6613149241482e-07,-2.24064010111914e-06,-1.48794442010399e-06,-1.34832710014103e-06,-7.62047269991513e-07,-6.94328782432736e-07,-8.72114132351138e-08,-5.22859548683089e-07,-1.17774807606875e-06,-1.12150244220028e-06,-1.58400506218346e-06,-1.40092777179177e-07,-8.31022461590062e-07,-8.65858530069877e-07,2.00962065888947e-07,-5.04299960164578e-07,-2.01561844483823e-06,-4.5193717547398e-07,1.73452313672891e-06,-3.49568189746028e-06,-7.11691138076394e-07,-5.93778063809081e-07,-1.61321903040752e-06,-6.30325646522805e-07,1.07519454278448e-06,-1.02809732549448e-06,3.02560027966802e-06,-4.46912135148065e-06,-1.50163247119517e-06,-1.87039479424923e-06,-1.72616511471415e-06,-4.73077611064691e-06,-3.55528032893236e-06,-1.05111865353083e-06,1.30089919010073e-06,8.61568360796492e-07,8.89050193013952e-07,-1.66532946864517e-06,1.40560442239878e-06,-2.26525032199072e-06,1.89366326914702e-06,-1.19512294843287e-06,-8.87513580638867e-07,5.72780238595109e-07,3.28674681755666e-06,-1.93178067800192e-06,3.03239537680697e-07,-1.06590421449697e-07,-2.21225746864619e-06,7.34228224561181e-08,-1.13485744284762e-06,-9.35387215294765e-07,-9.36952218675706e-07,-9.48495503384029e-08,-1.6760125493217e-06,-1.39318736458176e-06,-5.27967949697003e-06,6.29233236032493e-07
-1.23520643919317e-06,-1.58667934387253e-08,-1.25753105105284e-06,-1.17263953726545e-06,-1.12801195818522e-06,-5.36180988165198e-07,-1.74455956577894e-06,-1.0593587949073e-06,-4.51737915760714e-06,-2.01642769574988e-06,-1.34326619307665e-05,-3.36017122826388e-07,6.95239801546518e-07,-1.29469865150672e-06,5.958545591782e-07,-2.18097128046221e-06,-1.43007262679536e-06,-1.33087205602211e-06,-8.03786178990272e-07,-6.75752022748793e-07,-1.16386202827454e-07,-4.96813032970834e-07,-1.27656549694139e-06,-1.06423327543649e-06,-1.62506533763078e-06,-1.02628346008065e-07,-8.9587349396233e-07,-8.24147735521877e-07,1.47122046808099e-07,-4.99415403610969e-07,-2.01029096624689e-06,-4.33856888586907e-07,1.72671682677988e-06,-3.43272656560129e-06,-7.14374829436232e-07,-5.80311579221151e-07,-1.61810430766127e-06,-5.99567745179481e-07,1.06541235075966e-06,-9.63101650418719e-07,3.03974502603085e-06,-4.44950580532946e-06,-1.48735104003309e-06,-1.83296520534529e-06,-1.73817089552345e-06,-4.61669019016454e-06,-3.53010639211854e-06,-1.02419876182506e-06,1.34759698801415e-06,8.97521328179978e-07,8.07973198486659e-07,-1.60328566864422e-06,1.37830749465322e-06,-2.21932751963139e-06,1.81630928567446e-06,-1.14050166002803e-06,-8.88478040589435e-07,6.12930116495112e-07,3.22302734405103e-06,-1.90903912351465e-06,5.25330117655259e-07,-1.42430608648837e-07,-2.21936942709795e-06,7.06255580369357e-08,-1.22812716670279e-06,-8.30257078372911e-07,-9.7037412113337e-07,-8.00120395111533e-08,-1.7104312846697e-06,-1.36201407272485e-06,-5.33914026042342e-06,6.18534650260994e-07
-1.23599624670431e-06,5.99692562743636e-09,-1.27341294408518e-06,-1.13766527862972e-06,-1.15110905590261e-06,-4.89210106371196e-07,-1.76904356835741e-06,-1.02824187625666e-06,-4.49350143899881e-06,-1.95354542813944e-06,-1.33759487839815e-05,-2.99031263867103e-07,6.91233159384291e-07,-1.25131384753295e-06,5.31424696666992e-07,-2.12145863044615e-06,-1.36526449269597e-06,-1.31282701784816e-06,-8.42685731527979e-07,-6.5728639168051e-07,-1.39381789191216e-07,-4.72440808818224e-07,-1.36796611548405e-06,-1.00825353740523e-06,-1.65842876260384e-06,-6.68920905091995e-08,-9.53987315136027e-07,-7.84674504642349e-07,9.94358366338224e-08,-4.93983257359101e-07,-2.00178561629527e-06,-4.15982775298512e-07,1.71591266316662e-06,-3.36625414322081e-06,-7.17619326956266e-07,-5.67314616161122e-07,-1.62056616614572e-06,-5.69517809748286e-07,1.05349842319846e-06,-8.99210953175341e-07,3.05449346852181e-06,-4.42724446922391e-06,-1.47033502112132e-06,-1.79470617821157e-06,-1.74313890327009e-06,-4.50457399488815e-06,-3.49978648449131e-06,-9.97147526547434e-07,1.39385036007912e-06,9.3084640134384e-07,7.2871552666155e-07,-1.54022221794751e-06,1.35072212461906e-06,-2.17205715640309e-06,1.7406414293732e-06,-1.08590706114007e-06,-8.85496508626763e-07,6.52377734968138e-07,3.15887803516599e-06,-1.88510006033465e-06,7.52697906577456e-07,-1.80631429265287e-07,-2.21923786341991e-06,6.5283775770701e-08,-1.31508416876138e-06,-7.26575287283438e-07,-9.99802465877977e-07,-6.55204148712156e-08,-1.73970326549532e-06,-1.32988470192906e-06,-5.38828362175926e-06,6.0720128357747e-07
-1.23486954779934e-06,2.69392500670049e-08,-1.28624711849088e-06,-1.10237204174001e-06,-1.16952820922068e-06,-4.43033845940826e-07,-1.78955409988411e-06,-9.9677544387251e-07,-4.46534780133777e-06,-1.88969114553851e-06,-1.3305635015733e-05,-2.62059503366516e-07,6.90258415066513e-07,-1.20774446369417e-06,4.73044755357813e-07,-2.06226963181775e-06,-1.2933665613695e-06,-1.2942233985056e-06,-8.78599696732592e-07,-6.38986130857038e-07,-1.5603103304138e-07,-4.49824256275893e-07,-1.45159827213749e-06,-9.53762738048838e-07,-1.68386780086226e-06,-3.30418479490587e-08,-1.00509935103131e-06,-7.47618936837829e-07,5.81245368751696e-08,-4.88004364584105e-07,-1.99008465812584e-06,-3.98410405526326e-07,1.7021912240151e-06,-3.29654794089082e-06,-7.21492939234141e-07,-5.54800531736002e-07,-1.62060383284156e-06,-5.402701001727e-07,1.03929954031136e-06,-8.36470608900292e-07,3.07025073414204e-06,-4.40255293110854e-06,-1.45062460741648e-06,-1.75577071156958e-06,-1.74126531498803e-06,-4.39462831410769e-06,-3.46431407137644e-06,-9.70025452359125e-07,1.43958111449559e-06,9.6150423648889e-07,6.51488531104767e-07,-1.47635049082521e-06,1.32300176546884e-06,-2.12366647629392e-06,1.66688601234754e-06,-1.03152617680941e-06,-8.78575282504224e-07,6.910362291071e-07,3.09461643739945e-06,-1.86010883532991e-06,9.84735806060955e-07,-2.21005685231492e-07,-2.21175210472178e-06,5.73247357168661e-08,-1.39533820082227e-06,-6.24595893205542e-07,-1.0250741019358e-06,-5.14059709867988e-08,-1.7634774065695e-06,-1.29694913000921e-06,-5.42685409432227e-06,5.95276417883171e-07
-1.23181503816745e-06,4.68909306135833e-08,-1.29600892962285e-06,-1.0668809209929e-06,-1.18318345448912e-06,-3.97726661962164e-07,-1.80609843442806e-06,-9.65016629016933e-07,-4.43292650522551e-06,-1.82503135796268e-06,-1.3222137190568e-05,-2.25042814885189e-07,6.92442916980179e-07,-1.16410316724557e-06,4.20876567010276e-07,-2.00356722178239e-06,-1.21428389206866e-06,-1.27509644736189e-06,-9.11401095311055e-07,-6.20902208432414e-07,-1.66209386040467e-07,-4.29032572585528e-07,-1.52715939629067e-06,-9.00946140763978e-07,-1.70120031167513e-06,-1.22357625866571e-09,-1.04899022631559e-06,-7.13144899305464e-07,2.33682639436182e-08,-4.81482942424533e-07,-1.97518766366717e-06,-3.81229974063869e-07,1.68563721753931e-06,-3.22389665683789e-06,-7.26064016793017e-07,-5.42779512684572e-07,-1.61822922295229e-06,-5.11911885448848e-07,1.0226633030027e-06,-7.74921323669966e-07,3.08738980891424e-06,-4.37563672209947e-06,-1.42827413825789e-06,-1.71630910266021e-06,-1.73277864605265e-06,-4.28702815856319e-06,-3.42370233874022e-06,-9.4289020550061e-07,1.48470953690144e-06,9.89466811403675e-07,5.764820898159e-07,-1.41187764756496e-06,1.29528393222331e-06,-2.07437372467468e-06,1.59524901606051e-06,-9.77538575473233e-07,-8.67748651718607e-07,7.28823426901641e-07,3.03053675112264e-06,-1.83420589395355e-06,1.22081239783077e-06,-2.63358259367661e-07,-2.19684661779332e-06,4.66917449076769e-08,-1.46853804214143e-06,-5.24568914277955e-07,-1.04605349982815e-06,-3.76976872113841e-08,-1.78144083151851e-06,-1.26335563492051e-06,-5.45464953444883e-06,5.8279934584022e-07
-1.22683257456327e-06,6.57907446098216e-08,-1.30268936307364e-06,-1.03130955111819e-06,-1.19202097963398e-06,-3.5336094689033e-07,-1.81870653318289e-06,-9.33021670214821e-07,-4.39626178470477e-06,-1.75973248222291e-06,-1.31259112085612e-05,-1.87929955020966e-07,6.97887996007574e-07,-1.12050287505876e-06,3.75039428394962e-07,-1.94550888237556e-06,-1.12798245710439e-06,-1.25548511809358e-06,-9.40983178901275e-07,-6.03082070300015e-07,-1.69836382604036e-07,-4.10122208379507e-07,-1.59439823778221e-06,-8.49973708656744e-07,-1.71029147792963e-06,2.84296883179163e-08,-1.08548733021867e-06,-6.81399032932126e-07,-4.69587750041469e-09,-4.74426510320259e-07,-1.95711222164756e-06,-3.64525567389663e-07,1.66633846470142e-06,-3.14859250729889e-06,-7.31400553577337e-07,-5.31258546186128e-07,-1.61346738388627e-06,-4.84522796303083e-07,1.00343837390142e-06,-7.14599217983182e-07,3.10624938779109e-06,-4.34669040415941e-06,-1.40335235580177e-06,-1.67646796613179e-06,-1.7179380103711e-06,-4.18192311656704e-06,-3.37798461205643e-06,-9.1579613001941e-07,1.52915399555623e-06,1.01471746813532e-06,5.03863007873853e-07,-1.34700534219902e-06,1.26768932709707e-06,-2.02438697175407e-06,1.52591449537034e-06,-9.24115201047466e-07,-8.5307915746235e-07,7.65662365973716e-07,2.96690764383392e-06,-1.80752572937416e-06,1.46027420251458e-06,-3.07487136946761e-07,-2.17450204492552e-06,3.33445990431342e-08,-1.534373406132e-06,-4.26739881784525e-07,-1.0626339904148e-06,-2.44220866715366e-08,-1.79332192040154e-06,-1.22924993089908e-06,-5.47152431109175e-06,5.69805598106171e-07
-1.21993346960266e-06,8.35859561512535e-08,-1.3062952441664e-06,-9.95771381787097e-07,-1.19601967013157e-06,-3.10006936555042e-07,-1.82743064349668e-06,-9.00845598651572e-07,-4.3553939921932e-06,-1.69395983976098e-06,-1.30174500184833e-05,-1.5067754284163e-07,7.06668080850099e-07,-1.0770559440201e-06,3.35608880380577e-07,-1.88824575256442e-06,-1.03449101414305e-06,-1.23543189856677e-06,-9.67260261767712e-07,-5.85569418434447e-07,-1.66876828657321e-07,-3.93136390824319e-07,-1.65311676432136e-06,-8.00999155369159e-07,-1.71105542332953e-06,5.5798786166452e-08,-1.11446606862763e-06,-6.52509862099158e-07,-2.59754980793533e-08,-4.668457981009e-07,-1.93589450708161e-06,-3.4837450520567e-07,1.64438488175247e-06,-3.0709294035813e-06,-7.37569802577922e-07,-5.20241420027172e-07,-1.60635688093224e-06,-4.5817423868258e-07,9.81474695918541e-07,-6.55535923979675e-07,3.12713202368113e-06,-4.31589680186668e-06,-1.37594257546281e-06,-1.63638930712864e-06,-1.69703136625335e-06,-4.07943776355391e-06,-3.32721469125341e-06,-8.88793791249015e-07,1.57283055064703e-06,1.03725087855595e-06,4.3377363055674e-07,-1.28192850707644e-06,1.24032114076501e-06,-1.97390306261981e-06,1.45904318008529e-06,-8.7141729757253e-07,-8.3465761820515e-07,8.01481775416137e-07,2.9039703818164e-06,-1.78019591901037e-06,1.70244808540273e-06,-3.53184446174439e-07,-2.14474592423804e-06,1.72599180482312e-08,-1.59257662956219e-06,-3.31349316355821e-07,-1.07473880253458e-06,-1.16031089929357e-08,-1.79889302961052e-06,-1.19477425569389e-06,-5.47739207696963e-06,5.56327207199179e-07
-1.21114070778398e-06,1.00232715929965e-07,-1.30684933072134e-06,-9.60375005396444e-07,-1.19519142047879e-06,-2.677325938652e-07,-1.83234472430872e-06,-8.6854193745009e-07,-4.31037960222448e-06,-1.62787668164991e-06,-1.28972811219597e-05,-1.13250053720169e-07,7.18830033794802e-07,-1.03387336064975e-06,3.0261579740511e-07,-1.83192177017735e-06,-9.33902434715028e-07,-1.21498260027855e-06,-9.90168397578214e-07,-5.68404017018412e-07,-1.57341672751445e-07,-3.78104737400576e-07,-1.70317170731919e-06,-7.54159106371339e-07,-1.70345650170684e-06,8.07792955589094e-08,-1.13585079135905e-06,-6.26587014959859e-07,-4.04242843200056e-08,-4.58754634378754e-07,-1.91158970230876e-06,-3.32846761119786e-07,1.61986748017362e-06,-2.99120119618581e-06,-7.44637904142686e-07,-5.09728752183355e-07,-1.59695011576478e-06,-4.32928874112078e-07,9.56623694471705e-07,-5.97758692046783e-07,3.15030257866014e-06,-4.28342637212444e-06,-1.34614276285926e-06,-1.59620965261803e-06,-1.67037374275002e-06,-3.97967212483409e-06,-3.27146709688744e-06,-8.61929550377676e-07,1.61565257776808e-06,1.05707293171786e-06,3.66330678122292e-07,-1.2168342193148e-06,1.21326453381031e-06,-1.9231066968666e-06,1.39477128561749e-06,-8.19595432473267e-07,-8.12602913717846e-07,8.36216515902022e-07,2.84193729026123e-06,-1.75233625490234e-06,1.9466438097107e-06,-4.00237518714915e-07,-2.10765308692477e-06,-1.56862319315963e-09,-1.6429241283107e-06,-2.38632140792946e-07,-1.08232188808548e-06,7.38002470144205e-10,-1.79797286085835e-06,-1.16006651419832e-06,-5.47222810986954e-06,5.4239300298754e-07
-1.2004890774613e-06,1.15696397793932e-07,-1.30439028573932e-06,-9.25223540461049e-07,-1.18958120146899e-06,-2.26603470999409e-07,-1.83354370487997e-06,-8.36162417668539e-07,-4.26129107819585e-06,-1.56164324542384e-06,-1.27659638822381e-05,-7.56197343105396e-08,7.34392710199027e-07,-9.91063936846215e-07,2.76045798174441e-07,-1.77667284968526e-06,-8.26374479012568e-07,-1.19418610804908e-06,-1.00966589576865e-06,-5.51621526888301e-07,-1.4128854939131e-07,-3.65042963521668e-07,-1.74447574299054e-06,-7.0957237635362e-07,-1.68751024524654e-06,1.03282294068541e-07,-1.14961538717169e-06,-6.03720561255988e-07,-4.8043001780928e-08,-4.50169815824136e-07,-1.88427226323496e-06,-3.18004464987917e-07,1.59287739835499e-06,-2.90970000012395e-06,-7.52669526258664e-07,-4.99718049030064e-07,-1.58531356974339e-06,-4.08840171540661e-07,9.28738471489737e-07,-5.4129050278863e-07,3.17598697982426e-06,-4.24943670316488e-06,-1.31406551120459e-06,-1.5560592457081e-06,-1.63830543980732e-06,-3.88270219344192e-06,-3.21083722233012e-06,-8.35245174512215e-07,1.65753041510606e-06,1.07420054244092e-06,3.01624310751188e-07,-1.15190065391531e-06,1.18658630166247e-06,-1.87216964141636e-06,1.33320954092933e-06,-7.68788623424515e-07,-7.87061522980208e-07,8.69807970275502e-07,2.78099054582784e-06,-1.72405797308798e-06,2.19215673580825e-06,-4.48429973726362e-07,-2.06334572701375e-06,-2.31301682141176e-08,-1.68523760472378e-06,-1.48817037954187e-07,-1.08536852597923e-06,1.25827982653171e-08,-1.79042845866122e-06,-1.12525948453729e-06,-5.45607119689108e-06,5.28028934056519e-07
-1.18802521571505e-06,1.29951869231432e-07,-1.29897252917119e-06,-8.90414072671894e-07,-1.17926688189598e-06,-1.86682550686592e-07,-1.83114258631829e-06,-8.03756713580037e-07,-4.20821660914601e-06,-1.49541584831339e-06,-1.26240866561028e-05,-3.77664459214838e-08,7.53346741730205e-07,-9.48733518595475e-07,2.5583898421273e-07,-1.72262610177813e-06,-7.12130014618063e-07,-1.17309409339401e-06,-1.02573367380087e-06,-5.35253368560859e-07,-1.18821988099002e-07,-3.53952686789722e-07,-1.77699829891238e-06,-6.67339367750853e-07,-1.66328396192025e-06,1.23235014521884e-07,-1.15578354308846e-06,-5.8398047357467e-07,-4.88801304597383e-08,-4.41110957936803e-07,-1.85403602656571e-06,-3.0390148831587e-07,1.56350497716553e-06,-2.82671461071398e-06,-7.61727516380175e-07,-4.90203791207468e-07,-1.57152796445527e-06,-3.85952034272727e-07,8.97674002079322e-07,-4.86150182024472e-07,3.20437128543143e-06,-4.21407213664431e-06,-1.27983791472027e-06,-1.51606130764133e-06,-1.60119019581671e-06,-3.78858050479289e-06,-3.14544138627023e-06,-8.0877748682165e-07,1.69837104401858e-06,1.08866138247454e-06,2.39717430491277e-07,-1.08729612809665e-06,1.1603347240908e-06,-1.82125007881433e-06,1.27444244043263e-06,-7.19123572652703e-07,-7.5820681468165e-07,9.02204377810147e-07,2.72128130326449e-06,-1.69546308613307e-06,2.43827066209985e-06,-4.97542829749107e-07,-2.01199314111573e-06,-4.73966559133328e-08,-1.71938499380732e-06,-6.21257620131081e-08,-1.08389569829919e-06,2.39157048701006e-08,-1.77617681868577e-06,-1.09048009149025e-06,-5.42902503740572e-06,5.13258408887131e-07
-1.1738075632028e-06,1.4298369319689e-07,-1.29066596847809e-06,-8.56037155317977e-07,-1.16435880700236e-06,-1.48030065876608e-07,-1.8252753957762e-06,-7.71372199214373e-07,-4.15125972341325e-06,-1.42934602122542e-06,-1.24722637664618e-05,3.2255665915331e-10,7.75654542537058e-07,-9.0698421426409e-07,2.41890011893627e-07,-1.66989910053699e-06,-5.91456676462395e-07,-1.15176069577871e-06,-1.03837544252248e-06,-5.19326613694422e-07,-9.00932822000616e-08,-3.44821330067872e-07,-1.80076597536754e-06,-6.2754159523842e-07,-1.6308969734833e-06,1.40581390839866e-07,-1.15442866563173e-06,-5.67416216233125e-07,-4.30321226737373e-08,-4.31600328022413e-07,-1.82099415412229e-06,-2.90583113302179e-07,1.53183889112118e-06,-2.74252901659051e-06,-7.71872563965793e-07,-4.81177546257322e-07,-1.55568833075307e-06,-3.64298505879061e-07,8.63287348526939e-07,-4.32352518519993e-07,3.23560106873381e-06,-4.17746351266157e-06,-1.24360133499164e-06,-1.4763313706264e-06,-1.55941331611593e-06,-3.69733676933605e-06,-3.07541677955402e-06,-7.82558061489838e-07,1.73807781435517e-06,1.10049353806204e-06,1.80645226933376e-07,-1.02317824115732e-06,1.13453959787934e-06,-1.77049209065612e-06,1.21852772674141e-06,-6.70714011520145e-07,-7.26238092353813e-07,9.33361108696062e-07,2.66292915686071e-06,-1.66664382188148e-06,2.68426079992032e-06,-5.47355647279801e-07,-1.95381113576465e-06,-7.43229001161017e-08,-1.74528113558154e-06,2.12275870634754e-08,-1.07795223256366e-06,3.47240908074108e-08,-1.7551860924567e-06,-1.05584874954026e-06,-5.39125914165498e-06,4.98102650930473e-07
-1.1579062244523e-06,1.5478625900583e-07,-1.27955560649422e-06,-8.22176370430928e-07,-1.14499913397079e-06,-1.10703296231467e-07,-1.81609400175493e-06,-7.39053727463961e-07,-4.09053878357105e-06,-1.36357968745969e-06,-1.23111323277924e-05,3.86529041687997e-08,8.0125053818183e-07,-8.65913648764629e-07,2.34048504376658e-07,-1.61859920380097e-06,-4.64705962054587e-07,-1.13024217506014e-06,-1.04761772229411e-06,-5.03863904537134e-07,-5.53000111413619e-08,-3.37622124758733e-07,-1.81586256950849e-06,-5.90241341191493e-07,-1.5905204858809e-06,1.55282490199005e-07,-1.14567346080348e-06,-5.54056465024093e-07,-3.0643273289365e-08,-4.216626613648e-07,-1.78527891063264e-06,-2.78085785442486e-07,1.49796534652812e-06,-2.65742101457684e-06,-7.83162872701318e-07,-4.72628106708625e-07,-1.53790397561762e-06,-3.43903559799943e-07,8.2543790970785e-07,-3.79908385507698e-07,3.26978112422319e-06,-4.13972804188472e-06,-1.20551105835278e-06,-1.43697668270244e-06,-1.51337975603172e-06,-3.60897856508467e-06,-3.00092130096854e-06,-7.56612968262224e-07,1.77655022790311e-06,1.10974509941959e-06,1.24414972544082e-07,-9.59693113770473e-07,1.10921244928406e-06,-1.72002527365132e-06,1.16549611009938e-06,-6.23660157549916e-07,-6.91379401089553e-07,9.63240880413617e-07,2.60602193537336e-06,-1.63768217066182e-06,2.92939687134669e-06,-5.97647701671695e-07,-1.88906110076482e-06,-1.03846770403641e-07,-1.7628881610455e-06,1.01037314718115e-07,-1.06761870505027e-06,4.4998316598118e-08,-1.72747637848128e-06,-1.02147877527179e-06,-5.34300920466577e-06,4.8258106202508e-07
-1.14040272914842e-06,1.65363840515597e-07,-1.26574102528879e-06,-7.88907951709342e-07,-1.12136092416541e-06,-7.47563409962818e-08,-1.80376679880066e-06,-7.06843432579945e-07,-4.02618636617401e-06,-1.29825638971133e-06,-1.21413489355704e-05,7.72234432172287e-08,8.30041616290623e-07,-8.25614249549446e-07,2.3211980816576e-07,-1.56882293208255e-06,-3.32291759549311e-07,-1.10859653795706e-06,-1.05350968878439e-06,-4.88883400881816e-07,-1.46852132870919e-08,-3.32314214983414e-07,-1.82242869419721e-06,-5.55481446551932e-07,-1.54237708703881e-06,1.6731682884977e-07,-1.12968917119904e-06,-5.43908960479067e-07,-1.19051961419933e-08,-4.11324962120726e-07,-1.74704127341209e-06,-2.66436949024633e-07,1.46196735691368e-06,-2.57166092888473e-06,-7.9565384176321e-07,-4.64541651475243e-07,-1.51829833588778e-06,-3.24780977016746e-07,7.83987724491302e-07,-3.28824867021609e-07,3.30697549515865e-06,-4.1009693082093e-06,-1.16573584371518e-06,-1.3980956847035e-06,-1.46351215304002e-06,-3.52349209357859e-06,-2.92213327791442e-06,-7.30962570918981e-07,1.81368379420915e-06,1.11647368801414e-06,7.10060707517538e-08,-8.96974730210947e-07,1.0843469213448e-06,-1.66996448523244e-06,1.11535122646997e-06,-5.78048285481726e-07,-6.53878109046566e-07,9.9181392185359e-07,2.55061582462345e-06,-1.60864954266921e-06,3.1729463168422e-06,-6.48199184668721e-07,-1.81804875028793e-06,-1.35889472853512e-07,-1.77221558249178e-06,1.7710690055642e-07,-1.05300710297994e-06,5.473176828778e-08,-1.69312009587571e-06,-9.87475867395564e-07,-5.28457694202832e-06,4.66711589085691e-07
-1.12138969316327e-06,1.74730580431595e-07,-1.24933574767758e-06,-7.5630046998708e-07,-1.09364699713329e-06,-4.02398702680795e-08,-1.78847727235313e-06,-6.74780556723555e-07,-3.95834853223283e-06,-1.23350856839177e-06,-1.19635862373361e-05,1.1602661177029e-07,8.61907794627377e-07,-7.86172570073534e-07,2.3586609383889e-07,-1.5206554110532e-06,-1.94688316661332e-07,-1.08688314267488e-06,-1.0561228494477e-06,-4.74398754206659e-07,3.1463787957362e-08,-3.28842862743923e-07,-1.82066099152162e-06,-5.23285239613668e-07,-1.48673987241883e-06,1.76680569747977e-07,-1.10669447322851e-06,-5.36960496178964e-07,1.29440919804646e-08,-4.0061629103337e-07,-1.70645037517378e-06,-2.55654964317033e-07,1.42392410492096e-06,-2.48551043586204e-06,-8.09397755672653e-07,-4.56901928232258e-07,-1.4970087099486e-06,-3.06934314197092e-07,7.38801844554621e-07,-2.79105388771918e-07,3.34720781554657e-06,-4.06127740161455e-06,-1.12445736122386e-06,-1.35977755948718e-06,-1.41024880460038e-06,-3.44084300349554e-06,-2.83925106911434e-06,-7.05621382916327e-07,1.84936997259709e-06,1.12074592721673e-06,2.037035666113e-08,-8.35144386816996e-07,1.05991933025791e-06,-1.62040971603605e-06,1.06806983220164e-06,-5.33950413187958e-07,-6.1400328081612e-07,1.0190580915014e-06,2.49673580762814e-06,-1.57960653686364e-06,3.41417760005642e-06,-6.98792435010672e-07,-1.74112253758973e-06,-1.70355929327715e-07,-1.77332008341363e-06,2.49249781742109e-07,-1.03426024673879e-06,6.3920874301105e-08,-1.65224194179488e-06,-9.53937652209967e-07,-5.21632938228337e-06,4.50511089603041e-07
-1.10097038129262e-06,1.82910400178173e-07,-1.23046648121106e-06,-7.2441458165596e-07,-1.06208855704144e-06,-7.20085851802444e-09,-1.77042245703659e-06,-6.42901301279914e-07,-3.88718399704474e-06,-1.16946089385147e-06,-1.17785294093727e-05,1.55048853749823e-07,8.96703099258749e-07,-7.47668655995648e-07,2.45007795628131e-07,-1.47416988215886e-06,-5.24276657747929e-08,-1.06516228770299e-06,-1.05555055345044e-06,-4.60419108857209e-07,8.28168975452062e-08,-3.27139753366407e-07,-1.81081094736904e-06,-4.93656602505707e-07,-1.42393120286124e-06,1.83387601168723e-07,-1.07695404128329e-06,-5.33177042217553e-07,4.36214728996079e-08,-3.89567542298943e-07,-1.66369278269508e-06,-2.45749104827212e-07,1.38391039917443e-06,-2.39922149545966e-06,-8.24443481810478e-07,-4.49690455165838e-07,-1.4741858614515e-06,-2.90356962157542e-07,6.89748787449324e-07,-2.30749851674549e-07,3.39046195674111e-06,-4.02072917844521e-06,-1.08186952164239e-06,-1.32210185458829e-06,-1.3540415902278e-06,-3.36097728441879e-06,-2.75249254711158e-06,-6.80597982121715e-07,1.88349621335962e-06,1.12263686174312e-06,-2.7567351402531e-08,-7.74310249703424e-07,1.03588938480283e-06,-1.5714460866792e-06,1.02360223170649e-06,-4.91424102214949e-07,-5.72043858572612e-07,1.04495895273554e-06,2.44437641058127e-06,-1.55060282214306e-06,3.65236359801262e-06,-7.49213199826194e-07,-1.65867175113423e-06,-2.07135253654081e-07,-1.76630500447269e-06,3.17290148925588e-07,-1.01155097517661e-06,7.25651054647853e-08,-1.60501843658777e-06,-9.20953291852959e-07,-5.13869761540837e-06,4.33995691945347e-07
-1.07925817354301e-06,1.89936835243236e-07,-1.20927224993177e-06,-6.93302840017209e-07,-1.02694360075807e-06,2.43176952501083e-08,-1.74981130143521e-06,-6.11238703688579e-07,-3.8128632077008e-06,-1.10622965485673e-06,-1.15868725604973e-05,1.94271066484308e-07,9.34256644960295e-07,-7.10175458960469e-07,2.592253829656e-07,-1.42942728534532e-06,9.39034809726466e-08,-1.04349479147066e-06,-1.05190733847532e-06,-4.46949130183202e-07,1.3900309374629e-07,-3.27123399557216e-07,-1.79318331510283e-06,-4.66580172927579e-07,-1.35432110042487e-06,1.87469496629418e-07,-1.04077678682993e-06,-5.32504002813679e-07,7.98004060283199e-08,-3.78211211716339e-07,-1.6189716141623e-06,-2.36719632590986e-07,1.34199623392185e-06,-2.31303539070977e-06,-8.40836174023907e-07,-4.42886741379021e-07,-1.44999349185928e-06,-2.75032292515881e-07,6.36701077375809e-07,-1.83754765114487e-07,3.43668296779651e-06,-3.97938864567479e-06,-1.03817769464469e-06,-1.28513818084589e-06,-1.29535383787789e-06,-3.2838222300835e-06,-2.66209445890187e-06,-6.55894985533718e-07,1.91594611017976e-06,1.12222933165842e-06,-7.29084521187482e-08,-7.14567023938783e-07,1.01220106243286e-06,-1.52314396526423e-06,9.81872934808254e-07,-4.50512371625137e-07,-5.28306663167324e-07,1.06950980526101e-06,2.39350274317229e-06,-1.52167713044706e-06,3.88678506319057e-06,-7.99251923687416e-07,-1.57112429982458e-06,-2.46101322668743e-07,-1.75131952047032e-06,3.8106374695756e-07,-9.85081097524248e-07,8.06669581146308e-08,-1.55167706174586e-06,-8.88603151921829e-07,-5.05217499809249e-06,4.17181146400132e-07
-1.05637593463684e-06,1.95852796336138e-07,-1.18590341784017e-06,-6.63009569114091e-07,-9.88495110973591e-07,5.42770562148022e-08,-1.72686295050802e-06,-5.79822540429787e-07,-3.73556733432117e-06,-1.04392220563264e-06,-1.13893150762413e-05,2.33669074238216e-07,9.74373910673777e-07,-6.73758302407996e-07,2.78161456779482e-07,-1.38647591727562e-06,2.43667355722598e-07,-1.02194156888603e-06,-1.04532811832607e-06,-4.33989059449826e-07,1.99612596047867e-07,-3.2869964159842e-07,-1.76813415702481e-06,-4.42021677700172e-07,-1.27832528859148e-06,1.88975357200833e-07,-9.98513781800782e-07,-5.34866605938121e-07,1.21112975441599e-07,-3.66581157934027e-07,-1.57250549891751e-06,-2.28557948865863e-07,1.29824645769213e-06,-2.22718187590555e-06,-8.58616980849451e-07,-4.36468525445757e-07,-1.42460758112847e-06,-2.60933889340808e-07,5.79535878727897e-07,-1.38113376748218e-07,3.48577829609009e-06,-3.93730746321987e-06,-9.93597813335979e-07,-1.2489459906198e-06,-1.23465813642484e-06,-3.20928746767488e-06,-2.56831166419417e-06,-6.31509084157912e-07,1.94659967375177e-06,1.11961330769484e-06,-1.157795178313e-07,-6.55995735283892e-07,9.88783634058194e-07,-1.47555920033475e-06,9.42781539003265e-07,-4.11243723064841e-07,-4.83114225847358e-07,1.09271166930271e-06,2.34405182035112e-06,-1.49285736008728e-06,4.11673413881347e-06,-8.48705052896983e-07,-1.47894419642248e-06,-2.87113439813169e-07,-1.72855750526217e-06,4.40418666849696e-07,-9.55080116854984e-07,8.82319201933302e-08,-1.49249499781662e-06,-8.56958524807196e-07,-4.95731481918598e-06,4.00083162579625e-07
-1.03245528645617e-06,2.00710257262289e-07,-1.16052060840646e-06,-6.33570799298853e-07,-9.47049038188456e-07,8.26430463767871e-08,-1.70180495697974e-06,-5.48679256462828e-07,-3.65548718078227e-06,-9.82636473751358e-07,-1.1186557913893e-05,2.73214120894091e-07,1.01683820151722e-06,-6.38474403526519e-07,3.01423160099583e-07,-1.34535116788729e-06,3.96179259668747e-07,-1.00056320977069e-06,-1.03596721679453e-06,-4.21534795167391e-07,2.64199343250331e-07,-3.31762240790524e-07,-1.73606851646078e-06,-4.19928394408519e-07,-1.19640288634999e-06,1.8797153726622e-07,-9.50555880158013e-07,-5.40170421413524e-07,1.67152290073288e-07,-3.54712358528376e-07,-1.52452738629316e-06,-2.21246816782259e-07,1.25272055477212e-06,-2.14187843303707e-06,-8.77822758013063e-07,-4.30412030866782e-07,-1.39821559829259e-06,-2.4802586221385e-07,5.18135724421112e-07,-9.38157960503955e-08,3.53761926924966e-06,-3.89452555265185e-06,-9.48355364127095e-07,-1.21357443915693e-06,-1.17243409832549e-06,-3.13726604831594e-06,-2.47141625217588e-06,-6.07431137446472e-07,1.97533373221275e-06,1.1148851961324e-06,-1.56331016146986e-07,-5.98663624683234e-07,9.65552826926468e-07,-1.4287334624458e-06,9.0620382781118e-07,-3.73632274595785e-07,-4.36802463570826e-07,1.11457321817636e-06,2.29593414883801e-06,-1.46416078671767e-06,4.34151790224375e-06,-8.97376336034717e-07,-1.38262875309367e-06,-3.30017088584905e-07,-1.69825609053916e-06,4.95216115928995e-07,-9.21803733405071e-07,9.52684201951412e-08,-1.42779747295143e-06,-8.26081406276152e-07,-4.8547274361652e-06,3.82717728830248e-07
-1.00763578683524e-06,2.04569871150746e-07,-1.13329352790718e-06,-6.0501426358702e-07,-9.02932085497328e-07,1.09386335553912e-07,-1.67487143628094e-06,-5.17831920965983e-07,-3.57282202366477e-06,-9.22460531025301e-07,-1.09792998658018e-05,3.12873375332171e-07,1.06141228507476e-06,-6.04372455125665e-07,3.28584886209315e-07,-1.30607533765473e-06,5.50712152676445e-07,-9.79419563034909e-07,-1.023997255575e-06,-4.09578000321907e-07,3.32283762817297e-07,-3.36193563078418e-07,-1.69743773998508e-06,-4.00229736772713e-07,-1.10905377081209e-06,1.84541254453729e-07,-8.97331056950249e-07,-5.48302003180355e-07,2.1747521396374e-07,-3.42640662760101e-07,-1.47528321365874e-06,-2.14760651627849e-07,1.20547254087378e-06,-2.0573296350061e-06,-8.98485786405164e-07,-4.24692235690815e-07,-1.3710155854369e-06,-2.36263237225192e-07,4.52389337201609e-07,-5.08491098793475e-08,3.59204281506066e-06,-3.85107179553632e-06,-9.02684264666199e-07,-1.17906233121346e-06,-1.10916607836154e-06,-3.06763559366131e-06,-2.37169653845593e-06,-5.83646325811814e-07,2.00202245819664e-06,1.10814712306261e-06,-1.94735808860351e-07,-5.42624154906944e-07,9.42412112735033e-07,-1.38269468653995e-06,8.71993072393436e-07,-3.37678000494217e-07,-3.89718214243364e-07,1.13511065432995e-06,2.24903555798944e-06,-1.43559437911703e-06,4.56046190664249e-06,-9.4507810175431e-07,-1.28270550894753e-06,-3.74644772340627e-07,-1.6606939350894e-06,5.45331157804531e-07,-8.85532139805821e-07,1.01787758808519e-07,-1.35795573552131e-06,-7.96024325117759e-07,-4.74507690260215e-06,3.65101409739191e-07
-9.82064022037435e-07,2.07500517443743e-07,-1.10439970404472e-06,-5.77359453628325e-07,-8.5648932041552e-07,1.34482724891322e-07,-1.64630118252689e-06,-4.87300208947265e-07,-3.48777839118973e-06,-8.63472229394144e-07,-1.07682338169662e-05,3.52610443885139e-07,1.10784018637326e-06,-5.714922707585e-07,3.59191262338989e-07,-1.26865753740956e-06,7.06501657663593e-07,-9.58569329058631e-07,-1.00960790572518e-06,-3.98106234860537e-07,4.03355808955867e-07,-3.41865349597863e-07,-1.65273647358025e-06,-3.82837958115139e-07,-1.01681562693114e-06,1.78784084623851e-07,-8.39301486259744e-07,-5.59129652011213e-07,2.71605398688839e-07,-3.30402542881776e-07,-1.42503044533196e-06,-2.09065873812114e-07,1.15655097274556e-06,-1.97372661334097e-06,-9.20633497556626e-07,-4.19283151942788e-07,-1.34321511910561e-06,-2.25592422747188e-07,3.82192539139772e-07,-9.19749005051226e-09,3.6488533972249e-06,-3.80696480442708e-06,-8.56825635421914e-07,-1.14543815269394e-06,-1.04534085452145e-06,-3.00025949425225e-06,-2.26945594395466e-06,-5.60134359029126e-07,2.02653801758388e-06,1.0995062085671e-06,-2.31187442876228e-07,-4.87917127541585e-07,9.19254107154388e-07,-1.33745760668606e-06,8.39981522444125e-07,-3.03367073701299e-07,-3.42216649880669e-07,1.15434752426012e-06,2.20321925325221e-06,-1.40715521649769e-06,4.77291368928043e-06,-9.91632498342191e-07,-1.17972891271047e-06,-4.20816935921239e-07,-1.6161892259364e-06,5.90653416036714e-07,-8.46568122160157e-07,1.07804023167362e-07,-1.2833846646189e-06,-7.66830227807107e-07,-4.62907711243443e-06,3.47251618325563e-07
-9.55892620871862e-07,2.0957878273792e-07,-1.07402315212288e-06,-5.50617733826514e-07,-8.08081638743907e-07,1.57913417277597e-07,-1.61633576237758e-06,-4.57100408343867e-07,-3.40056879383531e-06,-8.05738903591511e-07,-1.05540430243598e-05,3.92385885175055e-07,1.15584912542756e-06,-5.39864495840516e-07,3.92760385623911e-07,-1.23309367199433e-06,8.62751428873621e-07,-9.38069662137898e-07,-9.9300451268173e-07,-3.8710311266248e-07,4.76878247279593e-07,-3.48639570433099e-07,-1.60249935646311e-06,-3.67648966125765e-07,-9.20260704138926e-07,1.70815343659726e-07,-7.76960377953397e-07,-5.72504295903777e-07,3.29036590345108e-07,-3.18034845774566e-07,-1.37403649357777e-06,-2.04121319366806e-07,1.10599907059683e-06,-1.8912466273123e-06,-9.44288208231831e-07,-4.14158109707833e-07,-1.31503015357038e-06,-2.1595174648699e-07,3.07449243175461e-07,3.11577049864266e-08,3.70782515048811e-06,-3.76221375389191e-06,-8.11026471894812e-07,-1.112720184654e-06,-9.81445276778647e-07,-2.93498815616285e-06,-2.16501175768728e-06,-5.368697380212e-07,2.04875133285812e-06,1.08907384038336e-06,-2.6589824899384e-07,-4.34568906934372e-07,8.95962066631954e-07,-1.2930243740109e-06,8.09982073099083e-07,-2.70672306982702e-07,-2.94658586024192e-07,1.17231446919331e-06,2.15832807022034e-06,-1.378831002611e-06,4.97824621586061e-06,-1.03687268275349e-06,-1.07427678409845e-06,-4.6834296382054e-07,-1.56509743215604e-06,6.31087735140177e-07,-8.05234981190768e-07,1.13333983741936e-07,-1.20454003179952e-06,-7.38532421208767e-07,-4.50748748926203e-06,3.29186859918676e-07
-9.29279196779244e-07,2.10888379141318e-07,-1.0423529798013e-06,-5.24792511827804e-07,-7.58083099736112e-07,1.79665269426435e-07,-1.58521760078823e-06,-4.27245452431302e-07,-3.31141041630258e-06,-7.49317142104038e-07,-1.03373974420327e-05,4.32157723573589e-07,1.20515158211385e-06,-5.09510386892852e-07,4.28787288477619e-07,-1.19936650841748e-06,1.01863883955084e-06,-9.1797578575327e-07,-9.74406605110971e-07,-3.76548482120186e-07,5.52290164287757e-07,-3.56369357012406e-07,-1.54729743556628e-06,-3.54543241666254e-07,-8.19992300547065e-07,1.60765358977202e-07,-7.10828592584822e-07,-5.88260484946007e-07,3.89236184154894e-07,-3.0557454670786e-07,-1.32257703284195e-06,-1.99878702973547e-07,1.05385495114709e-06,-1.81005273053261e-06,-9.69466864658396e-07,-4.09290041438472e-07,-1.28668375222196e-06,-2.07272058561514e-07,2.28072519486651e-07,7.02378304529444e-08,3.76870420355613e-06,-3.71681926391657e-06,-7.6553822576149e-07,-1.08091669526688e-06,-9.17963890998792e-07,-2.87166029216826e-06,-2.05869378636633e-06,-5.1382206719301e-07,2.06853295325793e-06,1.07696495416625e-06,-2.99097266338434e-07,-3.82592746307344e-07,8.72411467342218e-07,-1.24938524792242e-06,7.81790094005071e-07,-2.39553688325628e-07,-2.47407706817409e-07,1.18904890998597e-06,2.11418690554324e-06,-1.35060066995188e-06,5.17586123210845e-06,-1.08064394874175e-06,-9.66946578422809e-07,-5.17022249286847e-07,-1.50780883391599e-06,6.66554796240557e-07,-7.61874288660138e-07,1.18396974103978e-07,-1.12191542927203e-06,-7.11154576291138e-07,-4.38110825256524e-06,3.10926945367059e-07
-9.02385224387774e-07,2.11519504335544e-07,-1.00958194161008e-06,-4.9987946330698e-07,-7.06878150561826e-07,1.99731020272661e-07,-1.55318807180495e-06,-3.97744977369953e-07,-3.22052378029343e-06,-6.94252627600923e-07,-1.01189501167877e-05,4.71881958196286e-07,1.25544747235986e-06,-4.80441660523279e-07,4.66747608521698e-07,-1.16744582858927e-06,1.17332094392557e-06,-8.98340624531356e-07,-9.54046299060829e-07,-3.66418629391636e-07,6.29010676576004e-07,-3.64900007313061e-07,-1.4877343264204e-06,-3.43386854240915e-07,-7.1664099855014e-07,1.48778634798445e-07,-6.41451057559203e-07,-6.06217495076779e-07,4.51648996419002e-07,-2.93058507186572e-07,-1.27093422021747e-06,-1.96283128647923e-07,1.00015196716015e-06,-1.7302935307516e-06,-9.96180796131477e-07,-4.04651763855871e-07,-1.25840471653469e-06,-1.99477392973589e-07,1.43985726588145e-07,1.08066853118607e-07,3.83121117848572e-06,-3.67077432988146e-06,-7.20615305573664e-07,-1.05002620473043e-06,-8.55376548581331e-07,-2.81010425199944e-06,-1.95084289538957e-06,-4.90956413673286e-07,2.08575402245249e-06,1.06329732464403e-06,-3.31028013331849e-07,-3.31989210519356e-07,8.48471649404933e-07,-1.20651935074429e-06,7.5518540364649e-07,-2.09959005708942e-07,-2.00827727709263e-07,1.20459466527107e-06,2.07060529722894e-06,-1.32243506593193e-06,5.36519249372659e-06,-1.12280478354476e-06,-8.58351482581731e-07,-5.66645328357798e-07,-1.44474585608742e-06,6.96991693114344e-07,-7.16843496921939e-07,1.23014754085677e-07,-1.03603888473299e-06,-6.84710795130421e-07,-4.25077529991322e-06,2.92493172200946e-07
-8.75374860419131e-07,2.11568148053044e-07,-9.75904957225085e-07,-4.75866808671118e-07,-6.54858764509279e-07,2.18109489587897e-07,-1.5204856099641e-06,-3.68605404420041e-07,-3.12813139020315e-06,-6.40580047696607e-07,-9.89933368596104e-06,5.11513064352564e-07,1.30642641685198e-06,-4.52660413404015e-07,5.06101433613592e-07,-1.13728866616306e-06,1.32594065859177e-06,-8.79214456478494e-07,-9.32166610693086e-07,-3.56686503324997e-07,7.06442809547418e-07,-3.74070056760232e-07,-1.42444215137956e-06,-3.34032566239601e-07,-6.10860680415191e-07,1.35012916292953e-07,-5.69393013572478e-07,-6.26180532038827e-07,5.15701218085155e-07,-2.80523238906163e-07,-1.219394837683e-06,-1.93273643088097e-07,9.44919146997236e-07,-1.65210303917748e-06,-1.02443547784819e-06,-4.00216256217417e-07,-1.23042612453281e-06,-1.92485678833765e-07,5.51236927725444e-08,1.44671243586335e-07,3.89504385092687e-06,-3.62406529085416e-06,-6.76513509928991e-07,-1.02003781838794e-06,-7.94156015292746e-07,-2.75013938467437e-06,-1.8418094473751e-06,-4.68233708692245e-07,2.10028733188397e-06,1.0481908699735e-06,-3.61946128616106e-07,-2.82746689695776e-07,8.24007508434641e-07,-1.16439547719217e-06,7.29934369059019e-07,-1.81824556009494e-07,-1.55279520206979e-07,1.21900150233217e-06,2.02738012390432e-06,-1.29429771227267e-06,5.54570884278484e-06,-1.1632278390677e-06,-7.49116374601386e-07,-6.16995071994659e-07,-1.37636023984873e-06,7.22352477691138e-07,-6.70513422111568e-07,1.27211357143324e-07,-9.47469188410411e-07,-6.59205742430068e-07,-4.1173547513072e-06,2.73908473356803e-07
-8.48413722325046e-07,2.11135350193384e-07,-9.41517610247322e-07,-4.52735638937931e-07,-6.02421523310661e-07,2.348057402811e-07,-1.4873438603088e-06,-3.39830045996685e-07,-3.03445637616653e-06,-5.88323076626038e-07,-9.67915701318373e-06,5.51004483875277e-07,1.35777008148207e-06,-4.26159114205239e-07,5.46297289335575e-07,-1.10883962647628e-06,1.47563310212458e-06,-8.60644587831869e-07,-9.09019691959635e-07,-3.47321960950525e-07,7.83977513333475e-07,-3.83712406773131e-07,-1.3580772889986e-06,-3.26321017057576e-07,-5.03324355284016e-07,1.19638158727909e-07,-4.95236123297105e-07,-6.47942024664536e-07,5.8080451224973e-07,-2.68004675573136e-07,-1.16824837255901e-06,-1.90783826340935e-07,8.88181726254653e-07,-1.5756006072572e-06,-1.05423030370554e-06,-3.95956933596916e-07,-1.2029837909629e-06,-1.86209493729316e-07,-3.85660694023015e-08,1.80079861791326e-07,3.95987994987846e-06,-3.57667282354874e-06,-6.33488406843471e-07,-9.90931623765064e-07,-7.34765593145274e-07,-2.69157742579179e-06,-1.73195164552899e-06,-4.45611185676808e-07,2.11200844574866e-06,1.03176697079935e-06,-3.92116905626325e-07,-2.34841997676989e-07,7.98881216935642e-07,-1.12297295191351e-06,7.05792110710956e-07,-1.55075932344541e-07,-1.11118223963009e-07,1.23232462235055e-06,1.98429839270424e-06,-1.26614562850298e-06,5.71691709691131e-06,-1.20180079905456e-06,-6.39873679800824e-07,-6.67847928526711e-07,-1.30313007954859e-06,7.42608675008258e-07,-6.23265622086663e-07,1.31012922948258e-07,-8.5679196068724e-07,-6.34634841484359e-07,-3.98173720411241e-06,2.55197533707869e-07
-8.2166763837048e-07,2.10326416281735e-07,-9.06614644015038e-07,-4.30460287662249e-07,-5.49964672193402e-07,2.49831198956702e-07,-1.45398988437268e-06,-3.11419234579423e-07,-2.93972114802923e-06,-5.37494428081411e-07,-9.45900199374189e-06,5.90309100578566e-07,1.40915456959405e-06,-4.00920668078104e-07,5.86776237015745e-07,-1.08203128805706e-06,1.62153203757368e-06,-8.42675051979717e-07,-8.84865003397128e-07,-3.38292032273639e-07,8.60997785731139e-07,-3.93655502331247e-07,-1.28931596704755e-06,-3.20081977439986e-07,-3.94719828661155e-07,1.02835408781237e-07,-4.19574472975063e-07,-6.71282996129694e-07,6.4636022087765e-07,-2.55537953940491e-07,-1.11778505165671e-06,-1.88742414145255e-07,8.29961763055516e-07,-1.50089095024375e-06,-1.08555837080742e-06,-3.91847912707771e-07,-1.17631466046518e-06,-1.80556853418937e-07,-1.37122132464849e-07,2.14323835484743e-07,4.0253800717251e-06,-3.52857294716794e-06,-5.9179367252231e-07,-9.6267914736325e-07,-6.77656767546218e-07,-2.63422390415059e-06,-1.6216337900396e-06,-4.23042850012915e-07,2.12079688282181e-06,1.01414780555966e-06,-4.2181274334298e-07,-1.88241048782986e-07,7.72953958900752e-07,-1.08220252897555e-06,6.82504793559289e-07,-1.29628883560597e-07,-6.8690371549083e-08,1.24462408567676e-06,1.94114008775523e-06,-1.23793021000243e-06,5.87836472247583e-06,-1.23842712471117e-06,-5.31259154705006e-07,-7.18975208190981e-07,-1.22555674077258e-06,7.5774975329532e-07,-5.75489689235241e-07,1.34447516343764e-07,-7.64615489265401e-07,-6.10984533341348e-07,-3.84483174529912e-06,2.36386874946965e-07
-7.953013810048e-07,2.09250096389846e-07,-8.71388468768509e-07,-4.09008745451211e-07,-4.9788517081908e-07,2.63203731811669e-07,-1.42064243673767e-06,-2.83370473561367e-07,-2.84414607110467e-06,-4.88095979039153e-07,-9.23942055337829e-06,6.29379697771844e-07,1.46025284807721e-06,-3.76918553845963e-07,6.26976052362539e-07,-1.05678468360752e-06,1.76277637090589e-06,-8.25346333068444e-07,-8.5996743781033e-07,-3.29561202877048e-07,9.36882873958722e-07,-4.03724549465661e-07,-1.21884972966679e-06,-3.15135664355403e-07,-2.85745244623383e-07,8.47956061022466e-08,-3.43010495765616e-07,-6.95974502392485e-07,7.11763648924444e-07,-2.43157205156776e-07,-1.06829384384257e-06,-1.87073946396718e-07,7.70278827630831e-07,-1.42806425643444e-06,-1.11840627821404e-06,-3.87864267124278e-07,-1.15065514520527e-06,-1.75432032727213e-07,-2.40567921966535e-07,2.47436430896365e-07,4.09119068162475e-06,-3.47973802622515e-06,-5.51679402261832e-07,-9.3524386728799e-07,-6.23266890167092e-07,-2.57787956438964e-06,-1.51122445694876e-06,-4.00479976415862e-07,2.12653733995221e-06,9.95455703885169e-07,-4.51310535413083e-07,-1.42899606058488e-07,7.46087660819387e-07,-1.0420273264294e-06,6.59811984931112e-07,-1.05390238857258e-07,-2.83310521858886e-08,1.25596418645338e-06,1.89768105280905e-06,-1.2095981508403e-06,6.02964227299265e-06,-1.27302666999556e-06,-4.23907628658097e-07,-7.70144401827444e-07,-1.1441616711158e-06,7.67783529060958e-07,-5.27580477963461e-07,1.37544933868484e-07,-6.71566366157389e-07,-5.88232597320126e-07,-3.707559767159e-06,2.17504909628233e-07
-7.69477394896587e-07,2.08017733987561e-07,-8.36027693598501e-07,-3.88343113369189e-07,-4.46575762990611e-07,2.74947675160765e-07,-1.38751032538926e-06,-2.55678609239218e-07,-2.74794817352954e-06,-4.40118963986604e-07,-9.02093186223678e-06,6.6816939578552e-07,1.51073718953547e-06,-3.54117033610135e-07,6.66335454198904e-07,-1.03300985778028e-06,1.89851665629795e-06,-8.08695113410945e-07,-8.34595409170142e-07,-3.21091712524669e-07,1.01101252538915e-06,-4.13742763224107e-07,-1.1473808103155e-06,-3.1129410691497e-07,-1.77104532426779e-07,6.57183138888908e-08,-2.66150846401172e-07,-7.21779128200296e-07,7.7640839246311e-07,-2.30895357537361e-07,-1.02006044667168e-06,-1.85699436659481e-07,7.09150754607306e-07,-1.35719637867914e-06,-1.15275394344149e-06,-3.83982268962181e-07,-1.12623942047331e-06,-1.70736411811441e-07,-3.48910497112398e-07,2.7945291388999e-07,4.1569471742836e-06,-3.43013776199687e-06,-5.13390406848489e-07,-9.08581778330206e-07,-5.72016907698605e-07,-2.52234180436958e-06,-1.40109461066553e-06,-3.77871630584965e-07,2.12912094071391e-06,9.7581252010041e-07,-4.80889021117459e-07,-9.87640941191578e-08,7.18146701830753e-07,-1.00238378860145e-06,6.37449057163907e-07,-8.22588896593832e-08,9.63885810875481e-09,1.26641278702522e-06,1.85369588131155e-06,-1.18109240197441e-06,6.17038558183324e-06,-1.30553616833336e-06,-3.18448734538825e-07,-8.2112052630257e-07,-1.05948312045402e-06,7.72736492646241e-07,-4.79935288006704e-07,1.40336499104697e-07,-5.78284958318654e-07,-5.66348531034352e-07,-3.57084863596448e-06,1.98581965524247e-07
-7.44354532994446e-07,2.06742391479043e-07,-8.0071569791544e-07,-3.68420091372787e-07,-3.96422093020765e-07,2.85093820517638e-07,-1.35479087006078e-06,-2.28336023042854e-07,-2.65133989619145e-06,-3.93544238651178e-07,-8.80401978927837e-06,7.06632068033356e-07,1.56028161113017e-06,-3.32471433974607e-07,7.04298349964797e-07,-1.01060649845731e-06,2.02792154977501e-06,-7.92754042548923e-07,-8.0901892214421e-07,-3.12843867616363e-07,1.08277125429163e-06,-4.23532636595755e-07,-1.07561744506044e-06,-3.0836255364363e-07,-6.95027917383922e-08,4.58103875536877e-08,-1.8960225791772e-07,-7.48452532887387e-07,8.39690673831148e-07,-2.18783951984959e-07,-9.73365274207898e-07,-1.84537058150937e-07,6.46594444098967e-07,-1.28834910267983e-06,-1.18857444172422e-06,-3.80179614421169e-07,-1.10329769432975e-06,-1.66369340826712e-07,-4.62139359824987e-07,3.10410400124176e-07,4.22227696557947e-06,-3.37974016522093e-06,-4.77164509273844e-07,-8.82642006218537e-07,-5.24309148339313e-07,-2.46740612621624e-06,-1.29161566290449e-06,-3.55165211886417e-07,2.12844649085766e-06,9.55339028738111e-07,-5.10826122870217e-07,-5.57724696193521e-08,6.88999586923083e-07,-9.63202670022552e-07,6.15149610678143e-07,-6.01268198689239e-08,4.49153736150706e-08,1.27604062100428e-06,1.80896078678857e-06,-1.15235315581584e-06,6.30027769997542e-06,-1.33590959778902e-06,-2.15502661631245e-07,-8.71667489427099e-07,-9.7207279304427e-07,7.726540467726e-07,-4.32951026052912e-07,1.42854848194264e-07,-4.85420749381874e-07,-5.4529398822362e-07,-3.43562526674058e-06,1.79650281632228e-07
-7.20086815461412e-07,2.05537959396453e-07,-7.65629257979982e-07,-3.49191497775656e-07,-3.47799897906355e-07,2.93679353812602e-07,-1.32266847347937e-06,-2.01332842658421e-07,-2.55452789647482e-06,-3.4834261211826e-07,-8.5891306230236e-06,7.44722734186929e-07,1.60856429013266e-06,-3.1192849745075e-07,7.40318063673448e-07,-9.89464637662543e-07,2.15018415100887e-06,-7.77551525936861e-07,-7.83507637880019e-07,-3.04776365105937e-07,1.15155259165955e-06,-4.329172210369e-07,-1.0042691609336e-06,-3.06140910952808e-07,3.63583488640643e-08,2.52845906360277e-08,-1.13967409567098e-07,-7.75745040302265e-07,9.01013647014273e-07,-2.06852971302e-07,-9.28481463116687e-07,-1.83502841741378e-07,5.8262669694956e-07,-1.22157048631408e-06,-1.22583387429866e-06,-3.76435630571558e-07,-1.08205446895469e-06,-1.62229015024015e-07,-5.80225309335856e-07,3.40347693840863e-07,4.28680258744996e-06,-3.32851250211944e-06,-4.43230857764025e-07,-8.5736746673187e-07,-4.80525180542086e-07,-2.41286759744423e-06,-1.18315749179167e-06,-3.32307013492761e-07,2.12442172154475e-06,9.34154343787715e-07,-5.41396294121518e-07,-1.38551419561237e-08,6.5852057008057e-07,-9.24410036949213e-07,5.92647893962721e-07,-3.88801747899821e-08,7.7213961220499e-08,1.28492057142327e-06,1.76325642772586e-06,-1.12331884811762e-06,6.41905056834872e-06,-1.36411843134951e-06,-1.15675962634405e-07,-9.21549466816206e-07,-8.82492451488454e-07,7.6760065064832e-07,-3.87021367698237e-07,1.45133706969954e-07,-3.93627591001295e-07,-5.2502327238702e-07,-3.30280965681328e-06,1.60743976898676e-07
-6.96822224745573e-07,2.04518256356499e-07,-7.30937242138528e-07,-3.30604815578196e-07,-3.01072297262778e-07,3.0074774834941e-07,-1.29131331851357e-06,-1.74657170151357e-07,-2.45771191447915e-06,-3.04475245933586e-07,-8.37667107708067e-06,7.82397929004323e-07,1.65526993822672e-06,-2.92426801811504e-07,7.73861514605699e-07,-9.69465417708787e-07,2.26452818294102e-06,-7.63111532010933e-07,-7.58328950609346e-07,-2.96846625426834e-07,1.21676328880324e-06,-4.41721409302901e-07,-9.34042070547202e-07,-3.04425202820588e-07,1.39785367667757e-07,4.35816726124406e-09,-3.98408315096872e-08,-8.03403268184154e-07,9.59791641193366e-07,-1.9513068454402e-07,-8.85672912575403e-07,-1.8251138128613e-07,5.17265070311641e-07,-1.15689526494096e-06,-1.26449127185706e-06,-3.72731460741423e-07,-1.06272681204474e-06,-1.58213351023341e-07,-7.03119358361872e-07,3.69305115911835e-07,4.35014476050609e-06,-3.27642220413684e-06,-4.11808271282876e-07,-8.32695563785111e-07,-4.41023760646302e-07,-2.35852231422869e-06,-1.0760864353221e-06,-3.09242796101803e-07,2.11696450250367e-06,9.12375363366326e-07,-5.72867899113675e-07,2.70640635271808e-08,6.2659121682006e-07,-8.85928282944036e-07,5.6968119974097e-07,-1.8400358697077e-08,1.06271970253187e-07,1.29312692925108e-06,1.71637066327559e-06,-1.0939271674223e-06,6.52648641410993e-06,-1.39015177637646e-06,-1.9557443882496e-08,-9.70532282493245e-07,-7.91310486027269e-07,7.57659857695331e-07,-3.4253394001321e-07,1.47207661229319e-07,-3.03558901163031e-07,-5.05483883062151e-07,-3.17330842691886e-06,1.41898992295579e-07
-6.74701546958023e-07,2.03796126934924e-07,-6.96799385336926e-07,-3.12603761332006e-07,-2.56587194596249e-07,3.06348611745569e-07,-1.26088020079644e-06,-1.48295324945799e-07,-2.36108370710717e-06,-2.61894118310387e-07,-8.16700658985712e-06,8.19616045259789e-07,1.70009211906384e-06,-2.73897244366804e-07,8.04413318069135e-07,-9.50481917673082e-07,2.37021396785754e-06,-7.49453416926639e-07,-7.33746088492655e-07,-2.89011132039193e-07,1.27782744808662e-06,-4.49773211199097e-07,-8.65634200715782e-07,-3.03009042838409e-07,2.40097449222369e-07,-1.67486193763434e-08,3.21951290874888e-08,-8.31171791014153e-07,1.01545431425016e-06,-1.83643507537874e-07,-8.45192372430833e-07,-1.81476541471596e-07,4.50528740887432e-07,-1.09434531779391e-06,-1.30449853805228e-06,-3.69050226305376e-07,-1.04552265738877e-06,-1.54220853022584e-07,-8.3075172480995e-07,3.97324322548934e-07,4.41192542017834e-06,-3.22343773101214e-06,-3.83103632962148e-07,-8.08558919761049e-07,-4.06138886812277e-07,-2.30416885488545e-06,-9.707632738219e-07,-2.8591837111996e-07,2.10600400911223e-06,8.90116241688654e-07,-6.0550064415946e-07,6.70669074939012e-08,5.9310189548442e-07,-8.47677153027141e-07,5.45992218286502e-07,1.43484866944915e-09,1.31850912402713e-07,1.30073463886184e-06,1.66810121678284e-06,-1.06411606125952e-06,6.62241885954205e-06,-1.41401640411098e-06,7.22858336501619e-08,-1.01838478438842e-06,-6.99098461041673e-07,7.4293423411405e-07,-2.99867544025777e-07,1.4911192169966e-07,-2.15862845933758e-07,-4.86617110085642e-07,-3.04800841632139e-06,1.23153006780433e-07
-6.53857268483061e-07,2.03482544599878e-07,-6.63365152173902e-07,-2.9512887210235e-07,-2.14674802913734e-07,3.10537487516851e-07,-1.23150750428844e-06,-1.22232099626523e-07,-2.26482605467163e-06,-2.20542550971563e-07,-7.96045992522697e-06,8.56337648728173e-07,1.74273549396132e-06,-2.56263587502405e-07,8.31479779635867e-07,-9.32380034788123e-07,2.46654415745244e-06,-7.36591767236838e-07,-7.10016251787828e-07,-2.81225775380581e-07,1.33419055314698e-06,-4.56905012855781e-07,-7.99730882530467e-07,-3.01685111269728e-07,3.36631016046474e-07,-3.78139729734786e-08,1.01574252992465e-07,-8.58794827233678e-07,1.06745068753485e-06,-1.7241588078274e-07,-8.07279594370582e-07,-1.80312163525866e-07,3.82439363878451e-07,-1.03393019000965e-06,-1.34580043665713e-06,-3.65377163549419e-07,-1.03063915454909e-06,-1.50151456023552e-07,-9.63030912310065e-07,4.24448117092392e-07,4.47177067277889e-06,-3.16952937843174e-06,-3.57310345775546e-07,-7.84886131742208e-07,-3.76177976171554e-07,-2.24960971022887e-06,-8.67541216688946e-07,-2.62280188968684e-07,2.09148182885707e-06,8.67487890400813e-07,-6.39543079950584e-07,1.06239711156524e-07,5.57953184577964e-07,-8.09574767939093e-07,5.21331328830083e-07,2.07501657245217e-08,1.53738570755938e-07,1.30781854023929e-06,1.61825822300423e-06,-1.03382472741557e-06,6.70673372954657e-06,-1.43573666699774e-06,1.59312414327313e-07,-1.06488020550466e-06,-6.06427656947583e-07,7.23545152219806e-07,-2.59389436791059e-07,1.50882085232569e-07,-1.3117754092303e-07,-4.68358670707665e-07,-2.92777037922181e-06,1.04545327800386e-07
-6.34412537583921e-07,2.03685726756804e-07,-6.30772698238751e-07,-2.78118106054857e-07,-1.75645312624642e-07,3.13375611825197e-07,-1.20331632687055e-06,-9.64510266625247e-08,-2.16911184591371e-06,-1.80355795595626e-07,-7.75731008304679e-06,8.92525762424116e-07,1.78291797976287e-06,-2.39443061383507e-07,8.54592752705247e-07,-9.15019414868394e-07,2.55286917081387e-06,-7.2453626292512e-07,-6.8738880133635e-07,-2.73446199190244e-07,1.3853233689402e-06,-4.62954810285567e-07,-7.3700023131457e-07,-3.00246630556601e-07,4.28744159919635e-07,-5.86160648566802e-08,1.67750274467916e-07,-8.86017938424901e-07,1.11525303163253e-06,-1.61470165895421e-07,-7.72159561265054e-07,-1.78932764383153e-07,3.13021916429398e-07,-9.75647664602768e-07,-1.38833462524103e-06,-3.61699735129324e-07,-1.01826108680295e-06,-1.45907333638935e-07,-1.09984289354858e-06,4.50720258148406e-07,4.52931365958287e-06,-3.11467002523644e-06,-3.34606863205918e-07,-7.61602548234543e-07,-3.51420179807425e-07,-2.19465267989738e-06,-7.66763908992496e-07,-2.38275928087579e-07,2.07335299401545e-06,8.44597511297381e-07,-6.75230194337832e-07,1.44672311085426e-07,5.21057182221489e-07,-7.71538638400197e-07,4.9545881067252e-07,3.96716811811843e-08,1.7175091498987e-07,1.31445262009817e-06,1.56666663462439e-06,-1.00299457825198e-06,6.77936954124157e-06,-1.45535429906489e-06,2.41010140560396e-07,-1.10979750144231e-06,-5.13865633363687e-07,6.99632462898655e-07,-2.21452692790366e-07,1.5255389378143e-07,-5.01263071143868e-08,-4.50639385775735e-07,-2.81342282983803e-06,8.61167567616443e-08
-6.16480200695951e-07,2.04510268800317e-07,-5.99147939054098e-07,-2.61507452170679e-07,-1.39786720322421e-07,3.14929626004391e-07,-1.17640976212819e-06,-7.0934654036148e-08,-2.07410324726081e-06,-1.41261676327613e-07,-7.5577915270837e-06,9.28146116932779e-07,1.82037280358207e-06,-2.23347019304741e-07,8.73313329884205e-07,-8.98254425534333e-07,2.62859230017706e-06,-7.13291565180055e-07,-6.66103509496934e-07,-2.65628147227078e-07,1.4307256831446e-06,-4.67767408039883e-07,-6.78088743796993e-07,-2.9848883241541e-07,5.15820940656496e-07,-7.89345392640198e-08,2.30200558377314e-07,-9.12589726154884e-07,1.15836057516251e-06,-1.50826561354671e-07,-7.40040808544011e-07,-1.77254224927623e-07,2.42305515716699e-07,-9.19484379281566e-07,-1.43203173767619e-06,-3.58007715968049e-07,-1.00855937296162e-06,-1.41393661419563e-07,-1.24105040982473e-06,4.76185267167733e-07,4.58419731112774e-06,-3.05883581926551e-06,-3.15155305646838e-07,-7.38631061550381e-07,-3.32114845775646e-07,-2.13911222866718e-06,-6.68763473169685e-07,-2.13855080394579e-07,2.05158692959095e-06,8.21548162306644e-07,-7.12781113489113e-07,1.82457002827792e-07,4.82338705431344e-07,-7.33486659810459e-07,4.68146958589112e-07,5.83257326406202e-08,1.85733803618143e-07,1.32070928298986e-06,1.51316846637881e-06,-9.7157016635811e-07,6.84031765964568e-06,-1.47292809139136e-06,3.16899652635727e-07,-1.15292265493208e-06,-4.2197283988194e-07,6.71354057775577e-07,-1.86393662903014e-07,1.54162992772345e-07,2.66869878999205e-08,-4.33385892889922e-07,-2.70575607975434e-06,6.79094292918033e-08
-6.00161920594173e-07,2.06056303939633e-07,-5.68603733413781e-07,-2.45231544547736e-07,-1.07362830564561e-07,3.15271246366735e-07,-1.1508723408647e-06,-4.56648274999868e-08,-1.97995095976757e-06,-1.03181284250977e-07,-7.36209373129387e-06,9.631673639423e-07,1.85485044182362e-06,-2.07881640594509e-07,8.87235341999444e-07,-8.8193516576045e-07,2.69317445748397e-06,-7.02857233443473e-07,-6.463888841979e-07,-2.5772780826465e-07,1.46992986421576e-06,-4.71195573628234e-07,-6.23617037151536e-07,-2.96210408760657e-07,5.97275522604961e-07,-9.85520120825341e-08,2.88429604324425e-07,-9.38263512183179e-07,1.196303013898e-06,-1.40503037799061e-07,-7.11113849120998e-07,-1.75194462833001e-07,1.70324203603292e-07,-8.65416483987935e-07,-1.47681551712061e-06,-3.54293253142509e-07,-1.00168966351807e-06,-1.36519331265978e-07,-1.38649239723441e-06,5.00888237325008e-07,4.63607698026688e-06,-3.00200680469687e-06,-2.99100171528413e-07,-7.15892910899188e-07,-3.18480135996303e-07,-2.08281080033039e-06,-5.73858600318872e-07,-1.88969529248319e-07,2.02616830818177e-06,7.9843835869363e-07,-7.52396927113347e-07,2.19687482870429e-07,4.4173637003223e-07,-6.95338079292544e-07,4.39182090537032e-07,7.68377991697281e-08,1.95564461713372e-07,1.32665864939877e-06,1.45762485943432e-06,-9.39500060750214e-07,6.88962210654254e-06,-1.48853343045611e-06,3.86537673546039e-07,-1.19404993789245e-06,-3.31299291792138e-07,6.38885328331775e-07,-1.54529547131043e-07,1.55744690545742e-07,9.86824749053481e-08,-4.16521393942809e-07,-2.60551650617248e-06,4.99666299621978e-08
-5.85547380913502e-07,2.08418695549868e-07,-5.39239185362387e-07,-2.2922427670823e-07,-7.86114371113787e-08,3.14476893788082e-07,-1.12676963345354e-06,-2.06229770527504e-08,-1.88679356528455e-06,-6.6029719014803e-08,-7.17036104061441e-06,9.97561250523505e-07,1.88612043282595e-06,-1.92948675303381e-07,8.95988640931713e-07,-8.65908505055862e-07,2.74613854142345e-06,-6.93227674812592e-07,-6.28460575862496e-07,-2.49702157076578e-07,1.50250421347852e-06,-4.73101138356411e-07,-5.74175753690793e-07,-2.93214937882549e-07,6.72556120483812e-07,-1.17255551530678e-07,3.41972356555044e-07,-9.62798988878383e-07,1.22864380040675e-06,-1.30515292935447e-07,-6.85549712152732e-07,-1.72674085493734e-07,9.71176908600979e-08,-8.1341033560522e-07,-1.52260300029319e-06,-3.50550898851052e-07,-9.97791037689014e-07,-1.31197615561568e-07,-1.53598354593283e-06,5.24874644027788e-07,4.68462295043398e-06,-2.94416749803142e-06,-2.86567151425483e-07,-6.93308490829923e-07,-3.10701801674572e-07,-2.02558008603539e-06,-4.82352704922381e-07,-1.63574115994199e-07,1.99709780531944e-06,7.75361711561597e-07,-7.94258652338593e-07,2.56457798922395e-07,3.99203543551189e-07,-6.57014427398123e-07,4.0836643689928e-07,9.53314151966223e-08,2.01152727873093e-07,1.33236788479147e-06,1.39991795190298e-06,-9.06737664251326e-07,6.92737901461879e-06,-1.50226168616926e-06,4.49520058320554e-07,-1.23298312171187e-06,-2.4238131602626e-07,6.02418518608096e-07,-1.26156096347979e-07,1.57333720580049e-07,1.65308684754539e-07,-3.99966431305458e-07,-2.51340108802113e-06,3.23325818422195e-08
-5.72713580976021e-07,2.11686268787454e-07,-5.11139068563415e-07,-2.13419411365858e-07,-5.37426915451862e-08,3.12627285883481e-07,-1.104148013701e-06,4.20959468654622e-09,-1.79475696420111e-06,-2.97168720690022e-08,-6.982692844109e-06,1.03130275193106e-06,1.91397305208897e-06,-1.78446224383435e-07,8.99242141895007e-07,-8.50019145327371e-07,2.7870733993083e-06,-6.84392127104433e-07,-6.12519876988416e-07,-2.41509289062036e-07,1.52805608778975e-06,-4.73356035805253e-07,-5.3032165670053e-07,-2.89312276846137e-07,7.411487258881e-07,-1.34838129731286e-07,3.90397298193546e-07,-9.85963827626964e-07,1.25498319336705e-06,-1.20876726135806e-07,-6.63498606359267e-07,-1.69617018723291e-07,2.27320534825117e-08,-7.63423225719904e-07,-1.56930475256564e-06,-3.46777615671417e-07,-9.96984806963579e-07,-1.253467801013e-07,-1.68931399620221e-06,5.4819015613807e-07,4.72952282226375e-06,-2.88530742395059e-06,-2.77662053334511e-07,-6.70798159668142e-07,-3.089321235751e-07,-1.96726224100452e-06,-3.94532156335556e-07,-1.37627190866968e-07,1.96439274944986e-06,7.5240660545352e-07,-8.38525350663432e-07,2.92861318094253e-07,3.54709162762584e-07,-6.18440405884269e-07,3.75519899958974e-07,1.13927113176052e-07,2.02442065118496e-07,1.33790056440434e-06,1.33995254315324e-06,-8.73241964343282e-07,6.95373572598904e-06,-1.51421944239853e-06,5.05484587593742e-07,-1.26953662743571e-06,-1.55738366992308e-07,5.62161960433362e-07,-1.01545458380887e-07,1.58964008180542e-07,2.26046773683918e-07,-3.83639683393814e-07,-2.4300522480556e-06,1.50522123724287e-08
-5.61724225320492e-07,2.15941087962386e-07,-4.8437337712456e-07,-1.97751181224063e-07,-3.29376711707245e-08,3.09806994768101e-07,-1.08303458508829e-06,2.88514244203143e-08,-1.70395390865656e-06,5.85175459846851e-09,-6.79914406084309e-06,1.06437016100501e-06,1.93822083842687e-06,-1.64269548875497e-07,8.96706600151982e-07,-8.34110698255148e-07,2.81563735208125e-06,-6.76334675495737e-07,-5.98752324180765e-07,-2.33108746152335e-07,1.54623476913991e-06,-4.71843270237384e-07,-4.92573943650614e-07,-2.84319910892967e-07,8.02580586429901e-07,-1.51100035138715e-07,4.3330930738734e-07,-1.00753523295848e-06,1.27496104516884e-06,-1.11598432614411e-07,-6.45088718931006e-07,-1.65951107189353e-07,-5.27796277175715e-08,-7.15404135744914e-07,-1.61682515145503e-06,-3.42972754306242e-07,-9.99373431204852e-07,-1.18890644594008e-07,-1.84624917423548e-06,5.70880446513939e-07,4.77048378180925e-06,-2.82542162268041e-06,-2.72469846787136e-07,-6.48283043167081e-07,-3.13289024082237e-07,-1.90771104247137e-06,-3.10664599826393e-07,-1.11091143651354e-07,1.92808766108164e-06,7.29655916022541e-07,-8.85332411243808e-07,3.28989721545317e-07,3.08238407389572e-07,-5.79544722338572e-07,3.40481672793859e-07,1.32741402728832e-07,1.9941032977083e-07,1.34331608169595e-06,1.27765754189159e-06,-8.38978211347903e-07,6.96888954226922e-06,-1.52452757250014e-06,5.54113486746581e-07,-1.30353660895085e-06,-7.18699173870709e-08,5.18339184117019e-07,-8.09441829989108e-08,1.60668443207534e-07,2.80414537132511e-07,-3.67458768532305e-07,-2.35605303872043e-06,-1.82910201405422e-09
-5.52629210897028e-07,2.21257785614214e-07,-4.58997005497316e-07,-1.82154876553494e-07,-1.6347156371988e-08,3.06103974419433e-07,-1.06343726852859e-06,5.33206027258099e-08,-1.61448363413122e-06,4.07742005666817e-08,-6.61972593485682e-06,1.09674513301411e-06,1.95869996114667e-06,-1.50311901633514e-07,8.88137099884782e-07,-8.18026770940666e-07,2.8315612556749e-06,-6.69034301761307e-07,-5.87326411492556e-07,-2.24461831626971e-07,1.55673406102634e-06,-4.68457808330847e-07,-4.61410800134121e-07,-2.78064250699651e-07,8.56423412926279e-07,-1.65850236705087e-07,4.70352254383701e-07,-1.02730142956978e-06,1.28825931005054e-06,-1.02689216582092e-07,-6.30425159917236e-07,-1.61608682773178e-07,-1.29356693528663e-07,-6.69294512278169e-07,-1.66506271420438e-06,-3.39138005268851e-07,-1.00503955263231e-06,-1.11759090834571e-07,-2.00652977094927e-06,5.92991001127613e-07,4.80723474486272e-06,-2.76451113511426e-06,-2.7105383225081e-07,-6.25685829083499e-07,-3.238553559042e-07,-1.84679298309313e-06,-2.3099737919449e-07,-8.39329094084103e-08,1.88823467667916e-06,7.071867678105e-07,-9.34790011157273e-07,3.64932033024499e-07,2.59793224208476e-07,-5.40260863742206e-07,3.03111709172394e-07,1.51885793796503e-07,1.92070292654987e-07,1.34866911026812e-06,1.21298719140548e-06,-8.03918519169377e-07,6.97308614029826e-06,-1.53332016968824e-06,5.95135655171543e-07,-1.3348219631094e-06,8.74755925319896e-09,4.711879098187e-07,-6.45713984111361e-08,1.6247866022648e-07,3.27970177874247e-07,-3.51341045510485e-07,-2.29192270595353e-06,-1.82658095211502e-08
-5.45464211772722e-07,2.27702948520862e-07,-4.35049556997588e-07,-1.66567415527341e-07,-4.0906206308252e-09,3.0160906302191e-07,-1.04534504742779e-06,7.76344937351692e-08,-1.52643158925401e-06,7.51511762619128e-08,-6.44440712758895e-06,1.12841268587173e-06,1.97527142160659e-06,-1.36465375068213e-07,8.73335237735383e-07,-8.01612052676089e-07,2.83465108359702e-06,-6.62464964925637e-07,-5.78392422395549e-07,-2.15531911555954e-07,1.55929459633453e-06,-4.63107388558129e-07,-4.37266213428022e-07,-2.70381868730987e-07,9.02296294375222e-07,-1.78907691168273e-07,5.01211322270094e-07,-1.04506306951033e-06,1.29460426039691e-06,-9.41556223562887e-08,-6.19589060480401e-07,-1.56527097042904e-07,-2.06930406703221e-07,-6.25029055717238e-07,-1.71391046433717e-06,-3.35277326569057e-07,-1.01404515119642e-06,-1.03888520991667e-07,-2.16987186781766e-06,6.14566927140886e-07,4.83952835967999e-06,-2.70258346335945e-06,-2.73454941260333e-07,-6.02931548055203e-07,-3.40678370453165e-07,-1.7843882948274e-06,-1.55756072199259e-07,-5.61244447481184e-08,1.84490385438236e-06,6.85070331633999e-07,-9.86981761167905e-07,4.00773687812311e-07,2.09392700431229e-07,-5.00527804343661e-07,2.63292038074634e-07,1.71465870498141e-07,1.80469907425107e-07,1.354009128055e-06,1.1459220679748e-06,-7.68042385168999e-07,6.96661767225898e-06,-1.54074334574382e-06,6.28328592362591e-07,-1.3632452607065e-06,8.56634880881701e-08,4.20958933494001e-07,-5.2617170195527e-08,1.64424827225086e-07,3.68315796594758e-07,-3.35204399106405e-07,-2.23811266116982e-06,-3.42124718034087e-08
-5.40250359552305e-07,2.3533456507369e-07,-4.12555278590691e-07,-1.50927893592466e-07,3.74456790464072e-09,2.96415465811286e-07,-1.0287283637846e-06,1.01809462617598e-07,-1.4398692620992e-06,1.09085175654047e-07,-6.27311509326822e-06,1.15936115665477e-06,1.98782208416763e-06,-1.22621758235845e-07,8.52150986367514e-07,-7.84713395902892e-07,2.8247900212224e-06,-6.56595712730717e-07,-5.72081386666558e-07,-2.06284700843377e-07,1.55370584398174e-06,-4.55713243394142e-07,-4.20527062144061e-07,-2.61120666499559e-07,9.39868302713861e-07,-1.90102585055303e-07,5.25615037401868e-07,-1.06063454784845e-06,1.29376840162993e-06,-8.60019823587068e-08,-6.12636832846306e-07,-1.50649213941438e-07,-2.85423531739835e-07,-5.82536517324463e-07,-1.76325633246098e-06,-3.31396849216515e-07,-1.02643082428349e-06,-9.5222269066723e-08,-2.33596721407657e-06,6.35652760560183e-07,4.86714284240501e-06,-2.63965299709887e-06,-2.79691172591133e-07,-5.79948335001793e-07,-3.6376936977467e-07,-1.72039189700691e-06,-8.51431493212211e-08,-2.76431703224559e-08,1.79818335966979e-06,6.63371660814973e-07,-1.04196354537311e-06,4.36595648065239e-07,1.57073288938057e-07,-4.60290646920877e-07,2.20927916475504e-07,1.91580421197985e-07,1.64692320674827e-07,1.35938000943571e-06,1.07646984884796e-06,-7.31337126903021e-07,6.94982057113847e-06,-1.54695391330813e-06,6.53520007407838e-07,-1.38867359215264e-06,1.58455944369313e-07,3.67914922168768e-07,-4.52410532476754e-08,1.66535443846258e-07,4.0110057613753e-07,-3.18968000400584e-07,-2.1950028898009e-06,-4.96240654065308e-08
-5.36994018949517e-07,2.44201537578027e-07,-3.91523120041641e-07,-1.35178108504433e-07,7.10373275658983e-09,2.9061822255181e-07,-1.01353965943215e-06,1.25860613556051e-07,-1.35485410261251e-06,1.42679578521323e-07,-6.10573772738065e-06,1.18958211614618e-06,1.99626553097727e-06,-1.08673396513097e-07,8.24484223582751e-07,-7.67180884790086e-07,2.80194005989654e-06,-6.5139082440612e-07,-5.6850416813648e-07,-1.96688532090723e-07,1.53980780199236e-06,-4.46210730397418e-07,-4.11530497947106e-07,-2.50140965159806e-07,9.68860769932465e-07,-1.99277503211269e-07,5.433369974014e-07,-1.07384521655231e-06,1.28557207694091e-06,-7.823048103456e-08,-6.09599599328745e-07,-1.43923859027309e-07,-3.64749997259493e-07,-5.41740502885967e-07,-1.81298358732005e-06,-3.27504761889634e-07,-1.04221519515019e-06,-8.57109664954258e-08,-2.50448365943118e-06,6.56292273317228e-07,4.88988361770224e-06,-2.57574139209865e-06,-2.89757169925553e-07,-5.56668163947901e-07,-3.93103547520075e-07,-1.65471426147027e-06,-1.93367655738462e-08,1.52762461596027e-09,1.74817952955366e-06,6.42149564879723e-07,-1.09976256365311e-06,4.724735703945e-07,1.0288888936153e-07,-4.19501198738018e-07,1.75948813428022e-07,2.12320629363674e-07,1.4485561947251e-07,1.36481968712929e-06,1.00466584553757e-06,-6.93798233863746e-07,6.92307308223094e-06,-1.552117966783e-06,6.70589098454271e-07,-1.41098932231901e-06,2.26734225459246e-07,3.12329133326806e-07,-4.25708472740935e-08,1.68837150007578e-07,4.2602363592498e-07,-3.0255303633001e-07,-2.16289882354707e-06,-6.44562938463074e-08
-5.35686659681138e-07,2.54343262151503e-07,-3.71946916240957e-07,-1.19263057998827e-07,5.96526027691715e-09,2.84313662482436e-07,-9.99714057042583e-07,1.49801540804367e-07,-1.27142954247904e-06,1.76037748341457e-07,-5.94212528268328e-06,1.2190702439347e-06,2.00054273475894e-06,-9.4514047220762e-08,7.90285913277277e-07,-7.48868885331101e-07,2.76614307815069e-06,-6.4680998600239e-07,-5.67750688817421e-07,-1.86714605492583e-07,1.51749236618353e-06,-4.34549868758704e-07,-4.10561633920164e-07,-2.37316512482335e-07,9.8904922186302e-07,-2.06288516080481e-07,5.54197286600503e-07,-1.0845404874694e-06,1.26988475571956e-06,-7.08412335996259e-08,-6.10482795653658e-07,-1.36306222552642e-07,-4.44814642841845e-07,-5.02560282553865e-07,-1.8629712934554e-06,-3.23611175985275e-07,-1.06139445591783e-06,-7.53128601955062e-08,-2.67506574550317e-06,6.76528279239085e-07,4.90758473900954e-06,-2.5108778858725e-06,-3.03623945698717e-07,-5.33027548513085e-07,-4.28620023967489e-07,-1.58728218888069e-06,4.15103060813091e-08,3.13984194197006e-08,1.69501681447627e-06,6.21456518138903e-07,-1.16037658507321e-06,5.08477031360125e-07,4.69107888431897e-08,-3.78118483445481e-07,1.28309219229423e-07,2.33769329276573e-07,1.21112314909077e-07,1.37035988285333e-06,9.30573298387257e-07,-6.55429631929488e-07,6.8867925400014e-06,-1.55640937483535e-06,6.79467491114047e-07,-1.43009075011261e-06,2.90141213416137e-07,2.54484076955206e-07,-4.47015650868327e-08,1.71354545801058e-07,4.42836539851167e-07,-2.85883408295485e-07,-2.14202870074111e-06,-7.86659080952762e-08
-5.36304825703828e-07,2.6578927814575e-07,-3.53805690477583e-07,-1.03131407371487e-07,3.40753399645544e-10,2.77598849610033e-07,-9.87170174271208e-07,1.73644095200321e-07,-1.1896251133578e-06,2.09262131775813e-07,-5.7820925456191e-06,1.24782316752682e-06,2.00062254536832e-06,-8.00397248208384e-08,7.49558927514746e-07,-7.29637071249508e-07,2.71752140190135e-06,-6.42808499122317e-07,-5.69889293989287e-07,-1.76337217790026e-07,1.48670436662594e-06,-4.20695777930793e-07,-4.1785155151421e-07,-2.22535399723025e-07,1.00026495646198e-06,-2.11006178629803e-07,5.58063571904138e-07,-1.09258281635408e-06,1.24662600392543e-06,-6.38323781622176e-08,-6.15265950260035e-07,-1.27758215167867e-07,-5.25513051773112e-07,-4.64911605353711e-07,-1.91309479175866e-06,-3.1972797241607e-07,-1.0839420504928e-06,-6.39940802502293e-08,-2.84733545775511e-06,6.96402439024668e-07,4.92011006775524e-06,-2.44509953729363e-06,-3.21238753931299e-07,-5.0896820082743e-07,-4.70222077909863e-07,-1.51803949206066e-06,9.72715925624331e-08,6.19731443989765e-08,1.63883759770867e-06,6.01338599428452e-07,-1.22377341862802e-06,5.4466881619243e-07,-1.07725344243132e-08,-3.36109188823482e-07,7.79892749302749e-08,2.56000330285974e-07,9.36485628679723e-08,1.37602590478196e-06,8.54283429318167e-07,-6.16243857876239e-07,6.84143241026067e-06,-1.56000819771946e-06,6.8013982831451e-07,-1.44589266913664e-06,3.48355502662619e-07,1.94670141941129e-07,-5.16946208792038e-08,1.74110023595364e-07,4.51345445146397e-07,-2.68886401201428e-07,-2.13254143569347e-06,-9.22110320962523e-08
-5.38810201758247e-07,2.78558988482155e-07,-3.37064074705651e-07,-8.67359245048042e-08,-9.72503287525328e-09,2.70571021849459e-07,-9.75811062780245e-07,1.97398168246043e-07,-1.10945666324348e-06,2.42453365649832e-07,-5.62542126225369e-06,1.2758412696873e-06,1.99650198761192e-06,-6.51495295957786e-08,7.02358501831581e-07,-7.09351420162311e-07,2.65627783794763e-06,-6.39337522216783e-07,-5.74966261925619e-07,-1.65533968265418e-07,1.44744226561934e-06,-4.04629014819354e-07,-4.33575636806945e-07,-2.05700882025293e-07,1.00239625723759e-06,-2.1331643465508e-07,5.54851874997559e-07,-1.09785256157545e-06,1.21576613668198e-06,-5.72001794793945e-08,-6.23902638674617e-07,-1.18248776355525e-07,-6.06731470526875e-07,-4.28707514920913e-07,-1.96322619886365e-06,-3.15868631724032e-07,-1.10980850123633e-06,-5.17288545789348e-08,-3.02089313807105e-06,7.15955064957531e-07,4.92735419986226e-06,-2.37845138250846e-06,-3.42525113047681e-07,-4.8443764287852e-07,-5.17777576669237e-07,-1.44694758161066e-06,1.47847683820557e-07,9.32489114987579e-08,1.57980189163947e-06,5.8183545922263e-07,-1.28989060674589e-06,5.81104275625608e-07,-7.00557421978618e-08,-2.93448049538715e-07,2.49952179148508e-08,2.79077812892531e-07,6.26831235982434e-08,1.38183651011083e-06,7.75915250282213e-07,-5.76262141998051e-07,6.7874791229324e-06,-1.56309904957294e-06,6.72644006200578e-07,-1.45832682615943e-06,4.01093273390243e-07,1.33184207361121e-07,-6.35772442017567e-08,1.77123613252403e-07,4.51412879122818e-07,-2.51493321126787e-07,-2.13450501537054e-06,-1.05051488878715e-07
-5.43149777328629e-07,2.92661451885949e-07,-3.21672842384336e-07,-7.00338801182484e-08,-2.41544766185272e-08,2.63327027380521e-07,-9.65525263881877e-07,2.21071495658419e-07,-1.0309266709291e-06,2.75709397267075e-07,-5.47186280261333e-06,1.30312746868872e-06,1.9882063678959e-06,-4.97464540008406e-08,6.48792316577675e-07,-6.87885174468822e-07,2.58269517134018e-06,-6.36344341929786e-07,-5.83005461432768e-07,-1.54285940055796e-07,1.39975851037983e-06,-3.86345806387526e-07,-4.57852257704499e-07,-1.86732096005037e-07,9.95389233433218e-07,-2.13121421122178e-07,5.44527018531826e-07,-1.1002487137682e-06,1.17732655171968e-06,-5.09391425231749e-08,-6.36320611647165e-07,-1.07754136074842e-07,-6.88346813858039e-07,-3.93859162748881e-07,-2.01323492055165e-06,-3.12048049484977e-07,-1.138921382323e-06,-3.84996680269053e-08,-3.19531855740396e-06,7.35224925993231e-07,4.92924313812723e-06,-2.31098650604716e-06,-3.67382979082823e-07,-4.59389765039231e-07,-5.71119604994718e-07,-1.37398594622007e-06,1.9316683637198e-07,1.25215796685007e-07,1.51808690878867e-06,5.62980311342502e-07,-1.35863534683951e-06,6.17830755431958e-07,-1.30817098530035e-07,-2.50118164781889e-07,-3.06403608501886e-08,3.03055799577909e-07,2.84660619111373e-08,1.38780383055592e-06,6.95615125638339e-07,-5.35514398488301e-07,6.72544872946684e-06,-1.56586943722054e-06,6.57071051675668e-07,-1.46734227439607e-06,4.48109894647989e-07,7.03282566945696e-08,-8.03421245531474e-08,1.80412841383669e-07,4.42959128811798e-07,-2.33640095837006e-07,-2.14790543930423e-06,-1.17149122882537e-07
-5.49256108874006e-07,3.08095247608714e-07,-3.0756954965796e-07,-5.29874112164561e-08,-4.28375980236089e-08,2.5596276086471e-07,-9.56187973235449e-07,2.44669482169777e-07,-9.54024659217323e-07,3.09124623772563e-07,-5.3211410533254e-06,1.32968697658352e-06,1.97578918698249e-06,-3.37381612205399e-08,5.89020197673671e-07,-6.65119761539343e-07,2.49713511575699e-06,-6.33772671786211e-07,-5.94008159712234e-07,-1.42577855528911e-07,1.34375953420681e-06,-3.65858175531079e-07,-4.90741793838756e-07,-1.65564668587593e-07,9.79248279661314e-07,-2.10340167973774e-07,5.2710274568753e-07,-1.09968949574016e-06,1.13137974092239e-06,-4.50421340118767e-08,-6.52422096117639e-07,-9.62580295183082e-08,-7.70226751664675e-07,-3.60276616307497e-07,-2.06298817290684e-06,-3.08282339708853e-07,-1.17118544233772e-06,-2.42973631934919e-08,-3.37017214786585e-06,7.54249053954483e-07,4.92573471480696e-06,-2.24276602840009e-06,-3.95689069864293e-07,-4.33785326204819e-07,-6.30047292541903e-07,-1.29915251759796e-06,2.33185413298988e-07,1.57856677654963e-07,1.45388650451997e-06,5.44799947661344e-07,-1.42988464512031e-06,6.54887102823776e-07,-1.9291905873303e-07,-2.06111251637348e-07,-8.88584510819011e-08,3.27977702969305e-07,-8.72280678608019e-09,1.3939333565795e-06,6.1355608878783e-07,-4.94039124895127e-07,6.65588342595565e-06,-1.56850811380108e-06,6.33564639380984e-07,-1.47290561896497e-06,4.89201240242775e-07,6.40801260168536e-09,-1.01947290071532e-07,1.83992605654164e-07,4.25963230132116e-07,-2.15267831204886e-07,-2.17264621379705e-06,-1.28468115075195e-07
-5.57047680327629e-07,3.24848412800978e-07,-2.94679279472188e-07,-3.55638458427669e-08,-6.56327912746589e-08,2.48572601963167e-07,-9.47662306060383e-07,2.68195049205539e-07,-8.78727706294013e-07,3.42789056125632e-07,-5.17295552497419e-06,1.35552704110269e-06,1.95933185773254e-06,-1.70377308857337e-08,5.23253433430578e-07,-6.40945668036289e-07,2.40003671515963e-06,-6.31562977261654e-07,-6.07952981738173e-07,-1.30398204822047e-07,1.2796054035727e-06,-3.43193959157574e-07,-5.32246028358307e-07,-1.42151212037e-07,9.54036150596294e-07,-2.04909189328548e-07,5.02641515718261e-07,-1.09611283427915e-06,1.07804897918138e-06,-3.95005100332728e-08,-6.72084267693355e-07,-8.37518639783039e-08,-8.52229872095524e-07,-3.27869659309985e-07,-2.1123515035046e-06,-3.04588629311373e-07,-1.20648287717155e-06,-9.12118097580558e-09,-3.54499639296944e-06,7.73062552419357e-07,4.91681876845971e-06,-2.17385900889426e-06,-4.27297340354601e-07,-4.07592389570709e-07,-6.94326837095773e-07,-1.22246391064824e-06,2.67888158150358e-07,1.91147130211198e-07,1.3874104898529e-06,5.27314774965108e-07,-1.50348570442912e-06,6.92303252998839e-07,-2.5620897889071e-07,-1.61427834786523e-07,-1.49573749550956e-07,3.5387595345892e-07,-4.85757139078655e-08,1.40022397420772e-06,5.29936916442566e-07,-4.51883213201971e-07,6.57934798365974e-06,-1.57120348116545e-06,6.02320249684874e-07,-1.4750011521993e-06,5.2420469963061e-07,-5.82683903262842e-08,-1.28316221483878e-07,1.87875065216101e-07,4.00463548406621e-07,-1.96323317897128e-07,-2.20854840479305e-06,-1.38975288561343e-07
-5.66429359581417e-07,3.42898452279642e-07,-2.8291548089135e-07,-1.77359873594764e-08,-9.23677713465707e-08,2.41248859184368e-07,-9.39800651881024e-07,2.91648506755778e-07,-8.05001051924438e-07,3.76787513116045e-07,-5.02698465337205e-06,1.38065667684783e-06,1.93894322958856e-06,4.35632636580524e-10,4.51753708918565e-07,-6.15263263482264e-07,2.29191420904946e-06,-6.29652828922288e-07,-6.24796020920807e-07,-1.17739346791445e-07,1.20750911283809e-06,-3.18396718093519e-07,-5.82307907628021e-07,-1.16461700944628e-07,9.1987364974414e-07,-1.96782962321387e-07,4.71253981356725e-07,-1.08947670603835e-06,1.01750769269703e-06,-3.43042479926859e-08,-6.95159892498535e-07,-7.02348362179682e-08,-9.34205915670301e-07,-2.96548579254007e-07,-2.16118930480916e-06,-3.00984845936943e-07,-1.24467375146198e-06,7.02125964962242e-09,-3.71931737255327e-06,7.91698410513633e-07,4.90251707791887e-06,-2.10434226104688e-06,-4.62039608015851e-07,-3.80786688844371e-07,-7.63692717569495e-07,-1.14395553378679e-06,2.97288301668688e-07,2.25055385821491e-07,1.31888381577765e-06,5.10538873696809e-07,-1.57925654564834e-06,7.30099897922117e-07,-3.20519939933821e-07,-1.16077371835519e-07,-2.12674977417106e-07,3.80771707834016e-07,-9.07589647937222e-08,1.40666804867497e-06,4.44980965682173e-07,-4.09101676014186e-07,6.49642612338646e-06,-1.57414206243527e-06,5.63583972430281e-07,-1.47363087684343e-06,5.52999870544044e-07,-1.23391682341999e-07,-1.59338200499707e-07,1.92069548319448e-07,3.66557946926025e-07,-1.7675948412258e-07,-2.25535124878005e-06,-1.48640402990012e-07
-5.77292947425022e-07,3.62212420105943e-07,-2.72180894566565e-07,5.17643373637066e-10,-1.2284072575507e-07,2.34081222825143e-07,-9.32446106239607e-07,3.15027450308037e-07,-7.32798793482275e-07,4.11198850751312e-07,-4.88288926881672e-06,1.40508639068041e-06,1.91475892324825e-06,1.87559335656601e-08,3.74831662700459e-07,-5.8798356839037e-07,2.17335438101114e-06,-6.27977286840259e-07,-6.44471100054191e-07,-1.04597581675114e-07,1.12773553042224e-06,-2.91525538983381e-07,-6.40811673252957e-07,-8.84837274910426e-08,8.76938933455994e-07,-1.85934290305182e-07,4.33098155238943e-07,-1.07975935826095e-06,9.49978509728296e-07,-2.94420814008524e-08,-7.21478135861198e-07,-5.57139986538252e-08,-1.01599607639662e-06,-2.66224935142562e-07,-2.20936531349646e-06,-2.97489499981429e-07,-1.28559656444918e-06,2.41140419520805e-08,-3.89264645636943e-06,8.10187323350495e-07,4.88288305957957e-06,-2.03430008113613e-06,-4.99726325689048e-07,-3.53351921475366e-07,-8.37849088547807e-07,-1.06368156938725e-06,3.21427501656691e-07,2.59542351963912e-07,1.24854563317114e-06,4.94480078926016e-07,-1.65698686112621e-06,7.68288238348139e-07,-3.85671681300386e-07,-7.00783128605329e-08,-2.78025387510955e-07,4.08674640198129e-07,-1.34915182412443e-07,1.41325155151565e-06,3.58934779214795e-07,-3.65757292167516e-07,6.40771686349517e-06,-1.57750705433626e-06,5.17650962939155e-07,-1.4688144158764e-06,5.75508930789092e-07,-1.88652681966986e-07,-1.94868890838584e-07,1.96582478019465e-07,3.24403542742785e-07,-1.56535791018776e-07,-2.31271331927813e-06,-1.57436435968646e-07
-5.89517815830145e-07,3.82747072160184e-07,-2.62368555509057e-07,1.92126093575576e-08,-1.56821663883548e-07,2.27156231450169e-07,-9.25433966645879e-07,3.38326683233867e-07,-6.62064666709e-07,4.46095232169708e-07,-4.74031620540167e-06,1.42882790505387e-06,1.88694047935318e-06,3.79897635126071e-08,2.92845072675333e-07,-5.59028962415006e-07,2.04501341033529e-06,-6.26469318167873e-07,-6.66890181056374e-07,-9.09731948827695e-08,1.04060000189024e-06,-2.62654729241242e-07,-7.07583369413275e-07,-5.82226318802771e-08,8.25466433221176e-07,-1.7235454778473e-07,3.88378272742877e-07,-1.06695940290623e-06,8.75731997351699e-07,-2.49016362364053e-08,-7.50845534544699e-07,-4.02042730416285e-08,-1.0974333664232e-06,-2.36812298144513e-07,-2.25674309144584e-06,-2.94121460892282e-07,-1.32906895547341e-06,4.21330915740862e-08,-4.06448213885786e-06,8.28557520010986e-07,4.85800124161201e-06,-1.96382389728395e-06,-5.40147498550429e-07,-3.25279967191865e-07,-9.16471347541559e-07,-9.81714826380873e-07,3.40375617529355e-07,2.94561696171735e-07,1.17664823404375e-06,4.79140084279213e-07,-1.7364390968432e-06,8.06869819104678e-07,-4.51471639286654e-07,-2.34580937558045e-08,-3.45463460712917e-07,4.3758281661841e-07,-1.80665754844082e-07,1.41995422941215e-06,2.72066465495392e-07,-3.21920176878339e-07,6.31383086713843e-06,-1.58147696405341e-06,4.64863558948449e-07,-1.46058880884041e-06,5.91696696048005e-07,-2.53743470048163e-07,-2.34731148947611e-07,2.01417316773898e-07,2.74216050509312e-07,-1.35618567842072e-07,-2.380214244952e-06,-1.65339849057068e-07
-6.02971632464342e-07,4.04449088679387e-07,-2.5336286423201e-07,3.83584035656622e-08,-1.94053956904971e-07,2.20556757240284e-07,-9.18593279556608e-07,3.61538164625897e-07,-5.92732905202335e-07,4.81541442960911e-07,-4.59890201938629e-06,1.45189388229649e-06,1.85567432636954e-06,5.81957293884377e-08,2.06196681131844e-07,-5.2833382810814e-07,1.90761324834667e-06,-6.25060245915982e-07,-6.91943920834707e-07,-7.68704715723319e-08,9.46466619401838e-07,-2.31873407368301e-07,-7.82391724902517e-07,-2.57015057665124e-08,7.65745402667382e-07,-1.56053804831666e-07,3.37343360554472e-07,-1.05109578151623e-06,7.95085091405835e-07,-2.06695675631721e-08,-7.83047126966156e-07,-2.37284109836011e-08,-1.17834304030286e-06,-2.0822695963623e-07,-2.30318648564576e-06,-2.90899727984914e-07,-1.37488854452201e-06,6.1046377376945e-08,-4.2343120067348e-06,8.46834599839011e-07,4.8279865355581e-06,-1.89301185074867e-06,-5.83073740828783e-07,-2.96571031183675e-07,-9.99207866871989e-07,-8.98146465028978e-07,3.54230322288733e-07,3.30059994146163e-07,1.10345588102012e-06,4.64514569576783e-07,-1.81734975669163e-06,8.45836446690061e-07,-5.17716083616677e-07,2.37469351968756e-08,-4.14803789137881e-07,4.67482654999155e-07,-2.2761347030679e-07,1.42674981247133e-06,1.84663863974437e-07,-2.77667282243066e-07,6.21538681255878e-06,-1.5862243365079e-06,4.05609070960921e-07,-1.44900819572351e-06,6.01570371594316e-07,-3.1835851696418e-07,-2.78716059270734e-07,2.06574530625428e-07,2.16268717867021e-07,-1.13981284637204e-07,-2.45735697119961e-06,-1.72330835226955e-07
-6.1751116683741e-07,4.27255365405937e-07,-2.45040716181167e-07,5.79583407551974e-08,-2.3425605693372e-07,2.1436151617667e-07,-9.11748423985018e-07,3.84650982331176e-07,-5.24729170116258e-07,5.17594256522693e-07,-4.45827678103275e-06,1.47429765269474e-06,1.82117057582801e-06,7.94239338026647e-08,1.15331674233248e-07,-4.95845125963531e-07,1.76193754714758e-06,-6.23680223045143e-07,-7.19502368800752e-07,-6.22976820409998e-08,8.45746171954218e-07,-1.9928499204173e-07,-8.6494940460579e-07,9.03893235567525e-09,6.9811809981868e-07,-1.37060828657935e-07,2.80285523741588e-07,-1.03220759880675e-06,7.08399232039916e-07,-1.67316949133532e-08,-8.1784773302592e-07,-6.31690099992096e-09,-1.25854307445097e-06,-1.8038860263053e-07,-2.348560065213e-06,-2.87843196400904e-07,-1.42283390268691e-06,8.0814174464948e-08,-4.40161482909807e-06,8.65041378242025e-07,4.79298332779732e-06,-1.82196832113196e-06,-6.28257467034766e-07,-2.67233712001884e-07,-1.08568188306045e-06,-8.13085590999065e-07,3.63116555770188e-07,3.65976941662672e-07,1.02924353320764e-06,4.50593352903176e-07,-1.89943091886517e-06,8.85170187535764e-07,-5.84191344017533e-07,7.14916432794226e-08,-4.85838141657088e-07,4.98348971046765e-07,-2.75345319119954e-07,1.43360625828204e-06,9.70325095710126e-08,-2.3308183419634e-07,6.11300780824274e-06,-1.59191458057074e-06,3.40317262388709e-07,-1.43414339036222e-06,6.051790025353e-07,-3.82195761744338e-07,-3.26584186537678e-07,2.12051573562141e-07,1.50890859350911e-07,-9.1604760380823e-08,-2.54357055143749e-06,-1.78393544417063e-07
-6.32983172281392e-07,4.51093371539987e-07,-2.3727267878317e-07,7.80094955591038e-08,-2.77123379949364e-07,2.08644608423286e-07,-9.04720717230444e-07,4.07651350822698e-07,-4.5797153956031e-07,5.54301853959018e-07,-4.31806790257458e-06,1.49605294900759e-06,1.78366165562344e-06,1.01715511112945e-07,2.07348352216982e-08,-4.61522896514693e-07,1.60882717215468e-06,-6.22258724115753e-07,-7.49415800167303e-07,-4.72670383418845e-08,7.38893793251662e-07,-1.65006593990383e-07,-9.5491462221709e-07,4.59405896204555e-08,6.22977617983419e-07,-1.15422960187858e-07,2.17537966396487e-07,-1.01035382491135e-06,6.16078219837151e-07,-1.30731349886537e-08,-8.54993373788537e-07,1.19921781741485e-08,-1.33784469772735e-06,-1.53220932754309e-07,-2.39272953441603e-06,-2.84970419087955e-07,-1.47266564589588e-06,1.01389390000914e-07,-4.5658627564622e-06,8.83197742971754e-07,4.75316440983821e-06,-1.75080340376253e-06,-6.75434211935149e-07,-2.37284994937624e-07,-1.17549353680214e-06,-7.26658715416963e-07,3.671858239361e-07,4.02245629272225e-07,9.54295477742935e-07,4.37360568072242e-07,-1.98237195289241e-06,9.24843445112544e-07,-6.5067511840114e-07,1.19722314644767e-07,-5.58336705904906e-07,5.30145109976905e-07,-3.23435440959219e-07,1.44048602861647e-06,9.49341195795752e-09,-1.8825271171833e-07,6.00731787059765e-06,-1.59870490293552e-06,2.6945753834692e-07,-1.41608134628894e-06,6.02612628783706e-07,-4.44957644557838e-07,-3.78067036142281e-07,2.17842892527992e-07,7.84659989566233e-08,-6.84773051844843e-08,-2.63821345018545e-06,-1.83516283960333e-07
-6.49225338318463e-07,4.75881572137436e-07,-2.2992420631947e-07,9.85026870105892e-08,-3.22330336362975e-07,2.03475092428868e-07,-8.97330029710067e-07,4.30522633486226e-07,-3.92371547021658e-07,5.9170330294871e-07,-4.17790396666319e-06,1.51717364931465e-06,1.74340079295674e-06,1.25102222084387e-07,-7.70726074309882e-08,-4.25340685414634e-07,1.44917532929981e-06,-6.2072504696748e-07,-7.81515678553555e-07,-3.17946228207311e-08,6.26406324088611e-07,-1.2916831501175e-07,-1.05189310430886e-06,8.49283775104655e-08,5.40765380604179e-07,-9.12058646449152e-08,1.49472761316966e-07,-9.85612868251734e-07,5.18565807300623e-07,-9.67843056049233e-09,-8.94212821179186e-07,3.11533587083538e-08,-1.41605296965427e-06,-1.26652264138654e-07,-2.43556212108617e-06,-2.82299365946352e-07,-1.52412764353595e-06,1.22717950814849e-07,-4.72652361134193e-06,9.0132052063384e-07,4.70872976045964e-06,-1.67963234273625e-06,-7.24324073236709e-07,-2.06750172021265e-07,-1.26822205603181e-06,-6.39009079091255e-07,3.66615349820906e-07,4.38792878145415e-07,8.78903877322382e-07,4.2479486868331e-07,-2.06584142551058e-06,9.64819114230085e-07,-7.16937855085911e-07,1.68376906003051e-07,-6.32049499856213e-07,5.62823162574853e-07,-3.71448197369642e-07,1.44734639790196e-06,-7.76193345345051e-08,-1.43273773428878e-07,5.89893847643904e-06,-1.60674335467421e-06,1.93535864303454e-07,-1.39492451950259e-06,5.94001157397911e-07,-5.0635209994691e-07,-4.32868712791807e-07,2.23939953434e-07,-5.70365196824144e-10,-4.4594796480645e-08,-2.74057733735843e-06,-1.87691690751519e-07
-6.66067308278038e-07,5.01529912069229e-07,-2.22856883522227e-07,1.19422509268391e-07,-3.69532491992456e-07,1.98916594516041e-07,-8.89396396803105e-07,4.53245388747153e-07,-3.27835258081605e-07,6.29828099809736e-07,-4.03741851944112e-06,1.53767352924639e-06,1.70066035929121e-06,1.49606109974547e-07,-1.77536413527724e-07,-3.87285887734004e-07,1.28392234042763e-06,-6.19008817900867e-07,-8.15615740784676e-07,-1.59002894866775e-08,5.08819407452304e-07,-9.19124589089677e-08,-1.15544039242414e-06,1.25910713204934e-07,4.5196831864677e-07,-6.44931571441747e-08,7.64983849525073e-08,-9.58082022419272e-07,4.16343041609283e-07,-6.53167486618389e-09,-9.35219267121161e-07,5.11140397736948e-08,-1.49296740247359e-06,-1.00616054950139e-07,-2.47692694020455e-06,-2.79847181481609e-07,-1.57694833199148e-06,1.44739250501018e-07,-4.88306324949859e-06,9.19423352040117e-07,4.659905189528e-06,-1.6085749200464e-06,-7.74633269984382e-07,-1.75662689575783e-07,-1.36342807356485e-06,-5.502958404348e-07,3.61607082646996e-07,4.75539634804977e-07,8.03367245580476e-07,4.12869659791029e-07,-2.14948918231874e-06,1.00505081100685e-06,-7.82744201360287e-07,2.17385369298107e-07,-7.06707943930635e-07,5.96324263803455e-07,-4.18941349683928e-07,1.45413979438561e-06,-1.63961092710444e-07,-9.8243136494821e-08,5.78848519945185e-06,-1.61616798970925e-06,1.13091439806802e-07,-1.37079013487242e-06,5.79512969252236e-07,-5.66093518667974e-07,-4.90667765942489e-07,2.30331288380836e-07,-8.57333565439045e-08,-1.99606906942118e-08,-2.84989134949522e-06,-1.9091687189998e-07
-6.83331755530225e-07,5.27940358302891e-07,-2.15929687710226e-07,1.40747408023271e-07,-4.18368837723318e-07,1.95026955242695e-07,-8.80741614570478e-07,4.75797439238047e-07,-2.64264373227186e-07,6.68695778644793e-07,-3.89625378821545e-06,1.55756602431966e-06,1.65573009167826e-06,1.75239220770667e-07,-2.80073019157012e-07,-3.47360008122384e-07,1.11405010897212e-06,-6.17040494724031e-07,-8.51513195565373e-07,3.92460569524409e-10,3.86704337973669e-07,-5.33926597361746e-08,-1.26506446455207e-06,1.68780137454648e-07,3.57115753489518e-07,-3.53859061651262e-08,-9.42964030168414e-10,-9.27876791307903e-07,3.09925377973285e-07,-3.6166311666616e-09,-9.77712099660789e-07,7.18147984899587e-08,-1.56838262223049e-06,-7.50513871512446e-08,-2.5166953330046e-06,-2.77629942213329e-07,-1.63084212201894e-06,1.67386653236017e-07,-5.03494796877956e-06,9.37516575338182e-07,4.60694085551753e-06,-1.53775480279578e-06,-8.26055807859092e-07,-1.44063923735116e-07,-1.46065606917618e-06,-4.60693127945213e-07,3.52386572520679e-07,5.1240142185011e-07,7.27988864293535e-07,4.0155335761072e-07,-2.23294858992182e-06,1.04548317688553e-06,-8.47854509200183e-07,2.6667004203329e-07,-7.8202658173981e-07,6.30578971985538e-07,-4.65469320194486e-07,1.46081417499795e-06,-2.49179354575779e-07,-5.32624134126611e-08,5.67656444109636e-06,-1.62710613008633e-06,2.86931569865103e-08,-1.34380936512316e-06,5.59353279150909e-07,-6.23903683214801e-07,-5.5111920824646e-07,2.37002564108186e-07,-1.76491654571957e-07,5.41402717443068e-09,-2.96532678873688e-06,-1.9319351068675e-07
-7.00835509514503e-07,5.55007497088184e-07,-2.09000257560562e-07,1.62449801812967e-07,-4.6846414239046e-07,1.91857914562835e-07,-8.71190804848618e-07,4.98153963075548e-07,-2.01557342992536e-07,7.08315591103455e-07,-3.7540642809065e-06,1.5768640034713e-06,1.60891520669016e-06,2.02003390180857e-07,-3.84073448858117e-07,-3.05578833912861e-07,9.40576324164365e-07,-6.14751862529465e-07,-8.88990026540149e-07,1.70566281040927e-08,2.60664689826697e-07,-1.37729334167247e-08,-1.38022865372802e-06,2.13414040839252e-07,2.56776011266998e-07,-4.00201914903005e-09,-8.23782421797305e-08,-8.95130097656568e-07,1.99859585124612e-07,-9.16847480123389e-10,-1.02137877218802e-06,9.31897546551436e-08,-1.64208906358991e-06,-4.99033852875425e-08,-2.55474118247993e-06,-2.75662415104517e-07,-1.68551088885014e-06,1.90588051508438e-07,-5.18164694294762e-06,9.55607117669076e-07,4.55010967318193e-06,-1.46729885575355e-06,-8.7827524088909e-07,-1.12002884110343e-07,-1.55943692365463e-06,-3.70388960879293e-07,3.39201718655686e-07,5.49288841208573e-07,6.53075157626814e-07,3.90809677021891e-07,-2.315838921696e-06,1.08605225479516e-06,-9.12026387701227e-07,3.16146106699449e-07,-8.57704935630649e-07,6.65507726068397e-07,-5.10586512106697e-07,1.46731343394689e-06,-3.32916519370438e-07,-8.43591316243166e-09,5.56377026914385e-06,-1.63967373108252e-06,-5.90641242110506e-08,-1.31412643278546e-06,5.33762273752067e-07,-6.79512684126199e-07,-6.13856691644275e-07,2.43936671451522e-07,-2.72270744373755e-07,3.15109532068323e-08,-3.08600222638069e-06,-1.94527935305485e-07
-7.18390721912438e-07,5.82619182434334e-07,-2.01926156175848e-07,1.84496247174792e-07,-5.19431364902812e-07,1.89454838863408e-07,-8.6057393542931e-07,5.20287606379025e-07,-1.39610481702697e-07,7.48686259953707e-07,-3.61052022744368e-06,1.59557955563332e-06,1.56053442355164e-06,2.29890099704803e-07,-4.88907420707783e-07,-2.61972518742855e-07,7.64548449968495e-07,-6.12076517095285e-07,-9.27814389729419e-07,3.40618870932287e-08,1.31332747199629e-07,2.67733406244767e-08,-1.50035484135979e-06,2.59675489602284e-07,1.51552795322373e-07,2.95244844948412e-08,-1.67306612979614e-07,-8.59991381800376e-07,8.67204639147914e-08,1.58423321154987e-09,-1.06589675156217e-06,1.15166987331458e-07,-1.71387369337349e-06,-2.51235700501002e-08,-2.59094120609206e-06,-2.73957819167043e-07,-1.74064553467632e-06,2.1426647420337e-07,-5.3226346606258e-06,9.73698397938233e-07,4.48970562850467e-06,-1.39733643058813e-06,-9.30966517944799e-07,-7.95358464047324e-08,-1.65929056996994e-06,-2.79584044737211e-07,3.22321399333753e-07,5.86108126067813e-07,5.78934037899102e-07,3.80597946191791e-07,-2.39776786970057e-06,1.12668593522771e-06,-9.75016291467725e-07,3.65722118874983e-07,-9.33429482200338e-07,7.01021377611839e-07,-5.53850662327994e-07,1.47357784376151e-06,-4.14812752484865e-07,3.61301863548138e-08,5.45068137636872e-06,-1.6539748378839e-06,-1.49563451882634e-07,-1.28189764607063e-06,5.03013058154825e-07,-7.32659828978454e-07,-6.78494825079083e-07,2.51113835369025e-07,-3.72456456018654e-07,5.83044296519846e-08,-3.2109889752975e-06,-1.94931148908042e-07
-7.35806063416704e-07,6.10657231880278e-07,-1.94566116626484e-07,2.06847646239342e-07,-5.70874105313063e-07,1.87856493385851e-07,-8.48727281949261e-07,5.42168616347404e-07,-7.8319066798856e-08,7.89795809220627e-07,-3.46531082836519e-06,1.61372379184762e-06,1.51091791291942e-06,2.58880403654365e-07,-5.93927612809614e-07,-2.16585574886948e-07,5.87037541198085e-07,-6.08950330752735e-07,-9.67742095034584e-07,5.13747765777713e-08,-6.34238647121559e-10,6.80645008100753e-08,-1.62482690365847e-06,3.07414142856077e-07,4.20813437816627e-08,6.50443069086814e-08,-2.55202649253936e-07,-8.22625599698773e-07,-2.88926003190758e-08,3.90316692294257e-09,-1.11093553060412e-06,1.37669000628506e-07,-1.78352075797429e-06,-6.70144318192332e-10,-2.62517522563665e-06,-2.72527594087837e-07,-1.79592761347271e-06,2.3834073947989e-07,-5.45739335184989e-06,9.91790243576976e-07,4.42604201368076e-06,-1.3279986427143e-06,-9.83797900814577e-07,-4.67259164421594e-08,-1.75972872479384e-06,-1.88490448719242e-07,3.02033992329554e-07,6.22761737189107e-07,5.05873235542926e-07,3.70873447171644e-07,-2.47833416423471e-06,1.16730446961463e-06,-1.03658113345935e-06,4.15300601195306e-07,-1.00887573158262e-06,7.37021793379649e-07,-5.94826198809679e-07,1.47954452580891e-06,-4.94508899822704e-07,8.03286877278814e-08,5.33785816785004e-06,-1.67010112334588e-06,-2.42169776221405e-07,-1.24729037994609e-06,4.67409442864132e-07,-7.83094554954776e-07,-7.4463161695812e-07,2.58511744906428e-07,-4.76398765627552e-07,8.57617600049747e-08,-3.33931689245249e-06,-1.94418820440978e-07
-7.52887940720919e-07,6.38998165048219e-07,-1.86781257953825e-07,2.29459495081979e-07,-6.22389074552947e-07,1.87094862900086e-07,-8.35494817886653e-07,5.63764994342014e-07,-1.75784103080732e-08,8.31621473122822e-07,-3.31814727715036e-06,1.63130666558793e-06,1.46040518872896e-06,2.8894492847525e-07,-6.98474057753988e-07,-1.69476773231888e-07,4.09131932011963e-07,-6.05311896269838e-07,-1.00851816083316e-06,6.89589110028601e-08,-1.3455794014556e-07,1.09911740509177e-07,-1.75299438860051e-06,3.5646725367885e-07,-7.09755992282898e-08,1.02393805358048e-07,-3.45519660443122e-07,-7.83212130964899e-07,-1.46359228941739e-07,6.0564065635664e-09,-1.15615868943262e-06,1.6061323536541e-07,-1.85081254996466e-06,2.34917887512038e-08,-2.6573264139193e-06,-2.71381181048576e-07,-1.8510310077333e-06,2.62726144784485e-07,-5.58541538506963e-06,1.00987882278348e-06,4.35944959104099e-06,-1.25941764453112e-06,-1.03643293825286e-06,-1.36425303709207e-08,-1.86025768179983e-06,-9.73301711142039e-08,2.7864579546362e-07,6.59148998527889e-07,4.34198624773958e-07,3.61587780468051e-07,-2.55713028046999e-06,1.20782104774757e-06,-1.09647990884777e-06,4.64778697771656e-07,-1.08371039222605e-06,7.73402523787481e-07,-6.33087571087795e-07,1.48514794566372e-06,-5.7164943088566e-07,1.24052238174289e-07,5.22583998181144e-06,-1.68813149358502e-06,-3.36234027014416e-07,-1.21048201404443e-06,4.27283598813286e-07,-8.30577350263228e-07,-8.11851024067965e-07,2.66105702238332e-07,-5.8341582644057e-07,1.13843467920455e-07,-3.46998046862744e-06,-1.93011236568747e-07
-7.69441721772128e-07,6.67513980037831e-07,-1.78436258741403e-07,2.52282170887265e-07,-6.73568559417873e-07,1.87195021956787e-07,-8.20729518120644e-07,5.85042668371081e-07,4.27151119903626e-08,8.74129685542499e-07,-3.1687655213222e-06,1.64833681373751e-06,1.40934296195936e-06,3.20043945267183e-07,-8.01878629054439e-07,-1.20718950597337e-07,2.3193084855088e-07,-6.01102946157332e-07,-1.04987842991881e-06,8.67752068828315e-08,-2.69742964641614e-07,1.52120293275825e-07,-1.8841763990483e-06,4.06660746648201e-07,-1.86931968483639e-07,1.41396019103203e-07,-4.37693118809538e-07,-7.41943607409699e-07,-2.6504176002461e-07,8.06020363597407e-09,-1.20122598966668e-06,1.83912622761957e-07,-1.91553019084621e-06,4.73900758285298e-08,-2.68728151964843e-06,-2.70525821009381e-07,-1.90562364685959e-06,2.87335185735214e-07,-5.70620561761635e-06,1.02795659199927e-06,4.29027469685068e-06,-1.19172590447635e-06,-1.08853247837417e-06,1.96391021079541e-08,-1.96038114565828e-06,-6.33359956195179e-09,2.52479357738879e-07,6.95166766238389e-07,3.64212555988381e-07,3.52689250630156e-07,-2.63374520959139e-06,1.24814243480384e-06,-1.15447531476989e-06,5.14048881563432e-07,-1.15759360150033e-06,8.10049531550947e-07,-6.68222522040978e-07,1.49032042844481e-06,-6.45885382922585e-07,1.67194200562684e-07,5.11514244855527e-06,-1.70813174635544e-06,-4.31097239282039e-07,-1.17165883902549e-06,3.82993606877107e-07,-8.74880689252315e-07,-8.79725587739086e-07,2.73868789646981e-07,-6.92798197199684e-07,1.42503595285983e-07,-3.60194515942741e-06,-1.90733215846568e-07
-7.8527295694734e-07,6.96072962422348e-07,-1.69400475403791e-07,2.75261255673995e-07,-7.24002858576726e-07,1.88175054392306e-07,-8.04294561692579e-07,6.05965684123054e-07,1.02663087901278e-07,9.17276151341373e-07,-3.01692872864529e-06,1.66482142064596e-06,1.35808297534116e-06,3.52127515995549e-07,-9.03469582615769e-07,-7.03987249070899e-08,5.65380005889114e-08,-5.96268747285791e-07,-1.09155123482408e-06,1.04782123296079e-07,-4.05480958353638e-07,1.94490657931536e-07,-2.0176656567923e-06,4.57810363791456e-07,-3.05082687708055e-07,1.81861782243402e-07,-5.31144161058395e-07,-6.99024670964676e-07,-3.8428905255769e-07,9.93051354466068e-09,-1.24579548622931e-06,2.07476175848996e-07,-1.97745443060611e-06,7.10454334552124e-08,-2.71493107518282e-06,-2.69966374861175e-07,-1.95936925800578e-06,3.12078295880761e-07,-5.81928368548094e-06,1.04601225771673e-06,4.21887730114042e-06,-1.12505550398454e-06,-1.13975670112878e-06,5.30386032462411e-08,-2.05960308243677e-06,8.42621216474662e-08,2.23871731651433e-07,7.30710124743165e-07,2.96212204781592e-07,3.44123269454949e-07,-2.70776727084643e-06,1.28816966189536e-06,-1.21033535094307e-06,5.62999706379593e-07,-1.2301812026183e-06,8.4684197372151e-07,-6.9983527230935e-07,1.49499269095861e-06,-7.1687727932022e-07,2.09649523049278e-07,5.0062549950135e-06,-1.73015426901085e-06,-5.26094694088133e-07,-1.13101494197202e-06,3.34920932252999e-07,-9.1578999262613e-07,-9.47819138303727e-07,2.8177205306169e-07,-8.03813237441045e-07,1.71690037253014e-07,-3.73415391120647e-06,-1.87613987188259e-07
-8.00188585006259e-07,7.24540521318043e-07,-1.59548993732424e-07,2.98337893991966e-07,-7.73282668733393e-07,1.90046020990958e-07,-7.86064420982943e-07,6.26496413398012e-07,1.62364165322346e-07,9.61006000362091e-07,-2.86242942970091e-06,1.68076610803245e-06,1.30697983708458e-06,3.8513571338818e-07,-1.00257611674492e-06,-1.86161195439866e-08,-1.15944793350649e-07,-5.90758472820203e-07,-1.13325910084516e-06,1.22935913627863e-07,-5.41054775412351e-07,2.36819854507516e-07,-2.15273272166122e-06,5.09722870241792e-07,-4.24708073437022e-07,2.23590914427363e-07,-6.25283143687628e-07,-6.5467066857898e-07,-5.03440360925971e-07,1.16829043256421e-08,-1.289525642127e-06,2.31209613665947e-07,-2.03636646883261e-06,9.44714412923087e-08,-2.74016959315369e-06,-2.69705168201907e-07,-2.01192914074127e-06,3.36864598495173e-07,-5.92418622353526e-06,1.0640307524678e-06,4.14562904046161e-06,-1.05953746345556e-06,-1.18976715269911e-06,8.64710723554958e-08,-2.1574305592273e-06,1.74214798340714e-07,1.9317265701819e-07,7.65673103557914e-07,2.30487945602165e-07,3.35832773569965e-07,-2.77878694036591e-06,1.32779876255906e-06,-1.26383488703616e-06,6.11516595243466e-07,-1.30112704921948e-06,8.83653029590184e-07,-7.27549593691165e-07,1.49909438995802e-06,-7.84297997023814e-07,2.51315599489732e-07,4.89963850796611e-06,-1.75423776986668e-06,-6.20560045331747e-07,-1.08875107911408e-06,2.83467857042564e-07,-9.5310462743512e-07,-1.01568954944652e-06,2.89784700668287e-07,-9.15709641052124e-07,2.01344912754279e-07,-3.86553383617539e-06,-1.83687035211131e-07
-8.1399811370649e-07,7.52780046633085e-07,-1.48763603736075e-07,3.2144918175255e-07,-8.21001404146213e-07,1.92811974656436e-07,-7.65925826261564e-07,6.46595778676914e-07,2.21913229309813e-07,1.00525402434069e-06,-2.70509131278234e-06,1.6961748535318e-06,1.25638887115335e-06,4.18998913810109e-07,-1.09853291431629e-06,3.45159010197245e-08,-2.84423893222958e-07,-5.84525554220116e-07,-1.1747204753371e-06,1.41190886317193e-07,-6.75742683601089e-07,2.7890270183328e-07,-2.28863033815982e-06,5.62197310264931e-07,-5.45078300655394e-07,2.66373480759027e-07,-7.19513229297824e-07,-6.0910629190927e-07,-6.21829254738361e-07,1.33324687864108e-08,-1.33207743113065e-06,2.55016012426285e-07,-2.09204880412416e-06,1.17674611642599e-07,-2.76289575466244e-06,-2.69741860037412e-07,-2.06296395655072e-06,3.6160265990566e-07,-6.02046901223859e-06,1.08199322642404e-06,4.07091123427631e-06,-9.95301101747419e-07,-1.23822876381648e-06,1.19847760826568e-07,-2.25337654515217e-06,2.63278944928994e-07,1.60742686608306e-07,7.99949408494547e-07,1.67321756754265e-07,3.27758653385295e-07,-2.84639967213641e-06,1.36692154683616e-06,-1.31475718278897e-06,6.59482656618999e-07,-1.37008531957875e-06,9.2035076703511e-07,-7.5101175080564e-07,1.50255468712742e-06,-8.47835558361954e-07,2.92093113566854e-07,4.79572317430789e-06,-1.78040704533803e-06,-7.13829406379381e-07,-1.04507354144751e-06,2.29054900076595e-07,-9.86638953375116e-07,-1.08289152403951e-06,2.97874315042301e-07,-1.02772207808897e-06,2.31404967295917e-07,-3.99500299111411e-06,-1.78989915060046e-07
