S1_D1_HbO,S1_D1_HbR,S1_D2_HbO,S1_D2_HbR,S1_D20_HbO,S1_D20_HbR,S2_D2_HbO,S2_D2_HbR,S2_D3_HbO,S2_D3_HbR,S2_D21_HbO,S2_D21_HbR,S3_D3_HbO,S3_D3_HbR,S3_D4_HbO,S3_D4_HbR,S3_D22_HbO,S3_D22_HbR,S4_D5_HbO,S4_D5_HbR,S4_D6_HbO,S4_D6_HbR,S4_D7_HbO,S4_D7_HbR,S4_D17_HbO,S4_D17_HbR,S4_D8_HbO,S4_D8_HbR,S4_D23_HbO,S4_D23_HbR,S5_D7_HbO,S5_D7_HbR,S5_D10_HbO,S5_D10_HbR,S5_D8_HbO,S5_D8_HbR,S5_D9_HbO,S5_D9_HbR,S5_D24_HbO,S5_D24_HbR,S6_D10_HbO,S6_D10_HbR,S6_D11_HbO,S6_D11_HbR,S6_D12_HbO,S6_D12_HbR,S6_D9_HbO,S6_D9_HbR,S6_D25_HbO,S6_D25_HbR,S7_D11_HbO,S7_D11_HbR,S7_D12_HbO,S7_D12_HbR,S7_D13_HbO,S7_D13_HbR,S7_D14_HbO,S7_D14_HbR,S7_D18_HbO,S7_D18_HbR,S7_D26_HbO,S7_D26_HbR,S8_D15_HbO,S8_D15_HbR,S8_D16_HbO,S8_D16_HbR,S8_D19_HbO,S8_D19_HbR,S8_D9_HbO,S8_D9_HbR,S8_D27_HbO,S8_D27_HbR
8.69306830721147e-07,-2.11301497263352e-07,5.30649610330111e-07,-8.22608243400255e-08,-2.69185306036906e-07,-4.71136163030833e-07,-1.48925550851386e-06,-6.95578257189605e-07,-4.09367751466303e-06,-3.29375911214034e-09,-3.66719059590608e-06,-1.24690888553765e-06,-1.17891346022315e-06,-9.82535723193669e-07,-1.33205897026949e-06,4.9695733523604e-07,-1.76090699578452e-06,-2.03876173705563e-07,-4.60683015587281e-07,-6.88821846059567e-08,-4.57116119611715e-07,1.79757426575069e-07,-1.51929822727263e-06,3.39383505514162e-07,-2.1564503626345e-06,7.53117062156977e-07,-1.9982578352779e-06,9.89790969654834e-07,-1.20420637449413e-06,-1.95675601054719e-07,-5.92923637108573e-08,7.22653455930725e-07,-6.55660730338017e-07,2.40717799297336e-06,-3.09546819840589e-07,7.41204937526556e-07,3.22522107261729e-06,-5.44050010756632e-07,2.34045126513934e-07,1.05945246764676e-06,9.2511211325871e-08,2.30182281881008e-08,-8.8775657165718e-08,-5.90144669469258e-07,2.02415526798788e-06,-1.07641842796828e-06,9.50665180687888e-07,-1.02826587379881e-06,-9.41910871280024e-07,1.36374199222059e-06,-1.46448108213854e-07,1.43073837420327e-06,7.32044113808747e-07,3.60223490924554e-07,3.21371228023958e-06,-1.75925303069143e-07,2.71094631076333e-06,3.76729055539357e-07,3.50101641775949e-06,-7.01091820190368e-07,8.46994876808816e-06,-1.05241197536657e-05,-1.82580479311599e-06,5.0024971042234e-07,-1.46313226455986e-06,-1.2161761812716e-07,1.30526282448563e-07,3.28529937546401e-07,1.07569247690813e-06,1.64759055973302e-07,4.33473483397281e-06,-6.005601937604e-07
8.19664583152237e-07,-2.06820786921333e-07,4.67798537337423e-07,-6.6787674630747e-08,-3.33736441224715e-07,-4.55090808414326e-07,-1.5385659248072e-06,-7.02884555426097e-07,-4.23837695289252e-06,1.20855461271241e-08,-3.8784691237589e-06,-1.24318474237578e-06,-1.26875342530477e-06,-9.49484849131784e-07,-1.38890476365682e-06,5.02405376230696e-07,-1.78668856645232e-06,-1.95459783129222e-07,-4.88641107589939e-07,-7.19281749714866e-08,-4.59831484430089e-07,1.77708158169096e-07,-1.5814044223101e-06,3.54018324913877e-07,-2.1507705871597e-06,7.43735394489533e-07,-2.0276149820952e-06,9.97881190413997e-07,-1.21662854774167e-06,-1.89248935714914e-07,-7.43662318776147e-08,7.26958043424308e-07,-6.62731138006249e-07,2.41046173861658e-06,-3.25101327087993e-07,7.28671172562051e-07,3.18316502384793e-06,-5.24456522186067e-07,1.39654550616092e-07,1.10181212938019e-06,7.27766151284674e-08,1.99643821719769e-08,-9.13584949495046e-08,-5.89722888751761e-07,2.01678781489866e-06,-1.07631572282585e-06,9.1054963890286e-07,-1.03459698893729e-06,-9.65838854765909e-07,1.36341233350092e-06,-1.34202093623657e-07,1.4194341122068e-06,7.11706335046631e-07,3.72901210500206e-07,3.21533570796752e-06,-1.82819459314129e-07,2.68404798240682e-06,3.60934096126416e-07,3.44981244646699e-06,-6.88543219172592e-07,8.3720232547671e-06,-1.04661941919231e-05,-1.83567193401179e-06,5.06172749340739e-07,-1.42270811497197e-06,-1.52975009049345e-07,9.94980778702267e-08,3.32474095254203e-07,9.99182687878587e-07,1.78789591243536e-07,4.22573259349896e-06,-5.99845201015007e-07
7.74420697334171e-07,-2.04269089027951e-07,4.08741902267762e-07,-5.22085885533949e-08,-3.92421598603577e-07,-4.39500077737727e-07,-1.58240912976027e-06,-7.10326219675129e-07,-4.3755634756038e-06,2.72235865985284e-08,-4.0785427557182e-06,-1.23782294890827e-06,-1.35375632060439e-06,-9.17252672893909e-07,-1.44078002160817e-06,5.06429478591372e-07,-1.80948261892414e-06,-1.8710394874953e-07,-5.14043268349682e-07,-7.54238716260398e-08,-4.57265356841065e-07,1.73894778641423e-07,-1.63648301848133e-06,3.66122232973048e-07,-2.13937531991702e-06,7.32651620600413e-07,-2.0502775003097e-06,1.00309531540415e-06,-1.22504916477436e-06,-1.82356068130914e-07,-8.78211705420626e-08,7.30385271722626e-07,-6.68650060724889e-07,2.41226103048847e-06,-3.4045232004822e-07,7.1575751952183e-07,3.14222416178284e-06,-5.0602086999643e-07,4.71225763981704e-08,1.14311747261581e-06,5.2166404066871e-08,1.76961427619345e-08,-9.14848199145905e-08,-5.90385961897608e-07,2.0087687183114e-06,-1.07633260825425e-06,8.70256521105643e-07,-1.04141387998254e-06,-9.86888113289452e-07,1.36277431241209e-06,-1.18406954521936e-07,1.40583516297872e-06,6.91944665979152e-07,3.85510085026783e-07,3.21650557963529e-06,-1.89927505388386e-07,2.65777102089476e-06,3.44073468497634e-07,3.39952913418966e-06,-6.75342308617594e-07,8.27111155664131e-06,-1.03988842801575e-05,-1.84101497382153e-06,5.10179502177116e-07,-1.38067986259348e-06,-1.85034974490168e-07,7.04323231279881e-08,3.35991117499621e-07,9.25619055310652e-07,1.92220920381617e-07,4.12002477121112e-06,-5.98235733752094e-07
7.33608851317384e-07,-2.03625622506583e-07,3.53566649805495e-07,-3.85792891576372e-08,-4.45228999203814e-07,-4.24371176625905e-07,-1.62079833544153e-06,-7.17924483782969e-07,-4.5050393418965e-06,4.20333064864744e-08,-4.2672030479518e-06,-1.23085112995506e-06,-1.43376092316757e-06,-8.8596332305066e-07,-1.48751695819836e-06,5.08974913305897e-07,-1.82903845938011e-06,-1.78826964299042e-07,-5.368716246478e-07,-7.93514772172155e-08,-4.49440270035388e-07,1.68318843726831e-07,-1.68450866442172e-06,3.75723647566808e-07,-2.12225532449671e-06,7.1985067202954e-07,-2.06622261633779e-06,1.00541701669413e-06,-1.2294392704952e-06,-1.7501733869659e-07,-9.95778412361594e-08,7.32930718785493e-07,-6.73271437991056e-07,2.41255001239383e-06,-3.55484154305293e-07,7.02454474829027e-07,3.10250762620999e-06,-4.88755694647683e-07,-4.3228060759173e-08,1.18334843212374e-06,3.07461498452863e-08,1.62302749761154e-08,-8.91669873901027e-08,-5.92148932767689e-07,2.00005997245025e-06,-1.07638912069377e-06,8.29918938278755e-07,-1.04876568538736e-06,-1.00499579395335e-06,1.36180402399153e-06,-9.91206183849621e-08,1.39004273594148e-06,6.72732271140019e-07,3.98059061631618e-07,3.21739571409563e-06,-1.97292408164876e-07,2.63222451498324e-06,3.26168343369242e-07,3.35024295106854e-06,-6.61486302353583e-07,8.16731383268642e-06,-1.03224066345423e-05,-1.84176221500019e-06,5.12245976677359e-07,-1.33693671855684e-06,-2.1778293951728e-07,4.3465041025976e-08,3.39065100324634e-07,8.55311619387942e-07,2.0501487199985e-07,4.01806266036897e-06,-5.95782293357995e-07
6.97242724314405e-07,-2.04861859378112e-07,3.0234035573697e-07,-2.59494783297671e-08,-4.92167595200836e-07,-4.09710567250619e-07,-1.65377221233058e-06,-7.25699449287126e-07,-4.62664478677614e-06,5.64308157497504e-08,-4.44429723986925e-06,-1.22230426694531e-06,-1.5086306058098e-06,-8.5573438590433e-07,-1.52897535983775e-06,5.09992392464957e-07,-1.84512305365443e-06,-1.70645640815751e-07,-5.57115993807837e-07,-8.36924274875526e-08,-4.36398025085879e-07,1.60989447570322e-07,-1.72547878574757e-06,3.82858419042542e-07,-2.09941981110801e-06,7.0532282806589e-07,-2.07544840101897e-06,1.00483859327286e-06,-1.22978496643017e-06,-1.6725524263024e-07,-1.09565436982589e-07,7.34592894679759e-07,-6.76460537558158e-07,2.4113076387342e-06,-3.70086768555748e-07,6.8875207044377e-07,3.06411553981653e-06,-4.72669840178837e-07,-1.31091809940886e-07,1.22248631382217e-06,8.58126554229911e-09,1.55799590477555e-08,-8.44312951801824e-08,-5.95021488664721e-07,1.99062217441943e-06,-1.07640556525609e-06,7.89662274191937e-07,-1.0566955029792e-06,-1.0201149712233e-06,1.36047921745633e-06,-7.6414222072733e-08,1.37216139805235e-06,6.54038776858779e-07,4.10556939161653e-07,3.21817046183015e-06,-2.0495255419256e-07,2.60751136984181e-06,3.07242605381263e-07,3.30202517414696e-06,-6.46974404091726e-07,8.06074869258397e-06,-1.02370190209672e-05,-1.83786007203447e-06,5.12355850793345e-07,-1.29137734888169e-06,-2.51199356341972e-07,1.87215597752532e-08,3.41681786562185e-07,7.88551098345716e-07,2.17134398672469e-07,3.92027376242596e-06,-5.92538167242353e-07
6.65316604151158e-07,-2.07941895410291e-07,2.55111195160698e-07,-1.43627553090546e-08,-5.33266203592218e-07,-3.95524070128951e-07,-1.68139387524336e-06,-7.33669997838161e-07,-4.74025755899974e-06,7.03358890109454e-08,-4.60972686405819e-06,-1.21222438020163e-06,-1.57825316303237e-06,-8.26676391786883e-07,-1.56504273619194e-06,5.09438345367256e-07,-1.85752103622896e-06,-1.62575345441406e-07,-5.74773732851168e-07,-8.84275132240948e-08,-4.18198765466317e-07,1.51922976305999e-07,-1.75941268494181e-06,3.87569410940199e-07,-2.07089607324336e-06,6.89063911539997e-07,-2.07797336223709e-06,1.00136101469281e-06,-1.22608709095111e-06,-1.59094291170411e-07,-1.17721810657087e-07,7.35373135193804e-07,-6.78094385179736e-07,2.40851774561982e-06,-3.84156006595199e-07,6.74640044551053e-07,3.02713901577066e-06,-4.57768383268088e-07,-2.16181292637372e-07,1.26051367208246e-06,-1.42627776171609e-08,1.57544798521148e-08,-7.73173541759202e-08,-5.99007996400263e-07,1.98041505619695e-06,-1.07630311785877e-06,7.49604131530218e-07,-1.0652403377584e-06,-1.03221438658676e-06,1.35877934384407e-06,-5.03718189540348e-08,1.35229877226352e-06,6.35830812475872e-07,4.23012195270492e-07,3.2189838978528e-06,-2.12941439518981e-07,2.58372806224302e-06,2.87322793362186e-07,3.25494219228217e-06,-6.31808058550623e-07,7.95155302561115e-06,-1.01430188128545e-05,-1.82927313694984e-06,5.10500471952718e-07,-1.24391046245302e-06,-2.85259907781097e-07,-3.68370320355793e-09,3.43828615684219e-07,7.25608218728186e-07,2.28543691962568e-07,3.82706079257802e-06,-5.88559071430563e-07
6.37806058804997e-07,-2.1282284234876e-07,2.11908011628033e-07,-3.85657042834715e-09,-5.68572610633647e-07,-3.8181695454876e-07,-1.70374977291187e-06,-7.41853705137756e-07,-4.84579226318388e-06,8.36724307550633e-08,-4.76344612749073e-06,-1.20066017167624e-06,-1.64254051069193e-06,-7.98892346473347e-07,-1.59563432264882e-06,5.07275163123647e-07,-1.86603468482157e-06,-1.54630058871332e-07,-5.89849572772679e-07,-9.35370008947459e-08,-3.94920011213568e-07,1.41142822597245e-07,-1.78635062998203e-06,3.89906080529374e-07,-2.03672906668184e-06,6.71075438351134e-07,-2.07383596603767e-06,9.94993915502187e-07,-1.21836087405217e-06,-1.5056086356529e-07,-1.23993579937002e-07,7.35275496334942e-07,-6.78062107556634e-07,2.40416911019206e-06,-3.97593891022367e-07,6.60108013129055e-07,2.99166021221659e-06,-4.44052664814572e-07,-2.98228174764207e-07,1.29741420608893e-06,-3.77201907700042e-08,1.67589282133612e-08,-6.78773918027393e-08,-6.04107561642219e-07,1.96939801851684e-06,-1.0760044017456e-06,7.09854349168094e-07,-1.07443108824102e-06,-1.04127810571773e-06,1.35668559998655e-06,-2.10900379338691e-08,1.33056523490718e-06,6.1807253932953e-07,4.35432821092098e-07,3.21997910211078e-06,-2.21287410327937e-07,2.56096435741901e-06,2.66438049712952e-07,3.20905577200964e-06,-6.15991186360918e-07,7.83988168099811e-06,-1.00407412237094e-05,-1.81598417729677e-06,5.06678819151874e-07,-1.19445526204555e-06,-3.19935830903382e-07,-2.36474284113235e-08,3.45494766027057e-07,6.66733121103902e-07,2.39208304631371e-07,3.73880071480075e-06,-5.83902790213275e-07
6.14668662366331e-07,-2.19455238092978e-07,1.72740483413399e-07,5.53778836699738e-09,-5.98152658693003e-07,-3.6859401636035e-07,-1.72094849524719e-06,-7.50266757347492e-07,-4.943199522436e-06,9.63689053660781e-08,-4.90546009178075e-06,-1.18766663148126e-06,-1.70142827093891e-06,-7.72477308645127e-07,-1.62069294317429e-06,5.03471411476735e-07,-1.87048388465611e-06,-1.46822443066439e-07,-6.02355440288296e-07,-9.90007510961887e-08,-3.66655666290441e-07,1.28679066059104e-07,-1.80635294180239e-06,3.89924061314045e-07,-1.99698094124785e-06,6.51364723279549e-07,-2.06309409715956e-06,9.85755544532065e-07,-1.2066355726375e-06,-1.41683050798954e-07,-1.28336209340964e-07,7.34306649849017e-07,-6.76265188903055e-07,2.39825549621749e-06,-4.10308846928173e-07,6.45145639784747e-07,2.95775243166755e-06,-4.31520326730731e-07,-3.76983925455867e-07,1.33317267679719e-06,-6.1724590909146e-08,1.85939321894768e-08,-5.61754994858781e-08,-6.10314107302131e-07,1.95753066348591e-06,-1.07543403552715e-06,6.70515083894671e-07,-1.08429256761271e-06,-1.04730510041952e-06,1.35418097074739e-06,1.13223054925513e-08,1.3070736108413e-06,6.00726159433909e-07,4.47826167703019e-07,3.22128753274989e-06,-2.30013456914527e-07,2.53930298975641e-06,2.44620076532385e-07,3.16442327897143e-06,-5.99530399116605e-07,7.72590700049742e-06,-9.93055733039499e-06,-1.79799407047696e-06,5.00897429732421e-07,-1.14294176263039e-06,-3.55194360350052e-07,-4.10775542733563e-08,3.46671189358742e-07,6.12154838620084e-07,2.49095278045592e-07,3.65584380344708e-06,-5.78628815430247e-07
5.95844768803691e-07,-2.27783471216017e-07,1.37599385056987e-07,1.37951787074781e-08,-6.22089320726968e-07,-3.5585964134015e-07,-1.73311950992123e-06,-7.58923870901249e-07,-5.03246497658507e-06,1.08358730769056e-07,-5.03582267294452e-06,-1.17330461245547e-06,-1.75487525249267e-06,-7.47518014080577e-07,-1.64018874041096e-06,4.98002011732121e-07,-1.87070609380155e-06,-1.39163912284769e-07,-6.12310268425022e-07,-1.04798333831327e-07,-3.33515010264724e-07,1.14568124982664e-07,-1.8194990867635e-06,3.8768474988895e-07,-1.9517305328131e-06,6.29944944466356e-07,-2.04582446830742e-06,9.73672673156988e-07,-1.19095408844853e-06,-1.32490491980089e-07,-1.30714069107361e-07,7.32475779748772e-07,-6.72617640994761e-07,2.39077568176818e-06,-4.22215873207633e-07,6.29742800316292e-07,2.92548026297884e-06,-4.20165357168339e-07,-4.52220466953984e-07,1.36777484630926e-06,-8.62087338093054e-08,2.12554324443931e-08,-4.22868343466641e-08,-6.17616467631239e-07,1.94477332465362e-06,-1.07451915128831e-06,6.31680949051376e-07,-1.09484355656864e-06,-1.05030876172722e-06,1.35125027070146e-06,4.67446461711209e-08,1.28193886665479e-06,5.83752398166145e-07,4.60198807123072e-07,3.22302849725586e-06,-2.39137062265129e-07,2.51881931310427e-06,2.21903095477592e-07,3.12109785230443e-06,-5.82435191050242e-07,7.60981820662544e-06,-9.8128719017923e-06,-1.77532167704825e-06,4.93170292914925e-07,-1.08931098894327e-06,-3.90999281327913e-07,-5.5893410848733e-08,3.4735063772942e-07,5.62080846264015e-07,2.58173273273029e-07,3.57851273219e-06,-5.72797987733206e-07
5.81258328209319e-07,-2.37746216258427e-07,1.06456942723041e-07,2.08965590942232e-08,-6.40481764734767e-07,-3.43617853141452e-07,-1.74041183849425e-06,-7.67838216656768e-07,-5.1136081311067e-06,1.19580634641832e-07,-5.15463447830731e-06,-1.15764037784501e-06,-1.80286283644127e-06,-7.24092547084048e-07,-1.65411878005018e-06,4.90848389799412e-07,-1.86655631366009e-06,-1.31664705238969e-07,-6.19739797241669e-07,-1.10909139464642e-07,-2.95621685127119e-07,9.88523848036897e-08,-1.82588677980111e-06,3.83254899623922e-07,-1.901072822158e-06,6.06835168461713e-07,-2.0221219869518e-06,9.58780466199376e-07,-1.17137257042086e-06,-1.23014204313371e-07,-1.31100471596031e-07,7.29794480213538e-07,-6.67046086674172e-07,2.38173346286088e-06,-4.3323666160747e-07,6.13889739377015e-07,2.89489976167041e-06,-4.09978146487681e-07,-5.23730722267532e-07,1.40120744188487e-06,-1.11104280220129e-07,2.47345119436586e-08,-2.62967850683406e-08,-6.25998495765211e-07,1.93108759243833e-06,-1.07318988231027e-06,5.93439201983255e-07,-1.10609688515666e-06,-1.05031635034048e-06,1.34788018552507e-06,8.50451523733911e-08,1.25527780323573e-06,5.67110956706691e-07,4.72556409543257e-07,3.22530872376661e-06,-2.48670105593644e-07,2.49958092764701e-06,1.98323808440844e-07,3.07912852928861e-06,-5.64718103507123e-07,7.49182065005898e-06,-9.68812104582272e-06,-1.74800365635317e-06,4.83518712124871e-07,-1.03351507279699e-06,-4.27311569546153e-07,-6.80258285086059e-08,3.47527682621223e-07,5.16696676697319e-07,2.66412705461889e-07,3.5071016910566e-06,-5.66472141616306e-07
5.70817739241233e-07,-2.49276876341529e-07,7.92672801672813e-08,2.68289185418022e-08,-6.53444412981113e-07,-3.31872346416819e-07,-1.74299268243228e-06,-7.77021349344014e-07,-5.18668107324687e-06,1.29978972314484e-07,-5.2620405008121e-06,-1.14074512748045e-06,-1.84539427928587e-06,-7.02270059564905e-07,-1.66250653850735e-06,4.81998593472646e-07,-1.8579070695271e-06,-1.24333959802102e-07,-6.24676366622123e-07,-1.1731248404927e-07,-2.53112688954186e-07,8.15798085364123e-08,-1.82563110538532e-06,3.76706223471942e-07,-1.84511836829361e-06,5.82060337805657e-07,-1.99209908884146e-06,9.41122319096693e-07,-1.14796000516851e-06,-1.13286407501272e-07,-1.29477687337485e-07,7.26276655652569e-07,-6.59489758778355e-07,2.37113762678848e-06,-4.43299667984617e-07,5.97577218451614e-07,2.8660586615732e-06,-4.00945554654313e-07,-5.91329069603496e-07,1.43345814601234e-06,-1.36341612916715e-07,2.90172873836738e-08,-8.30011264188471e-09,-6.35439182853523e-07,1.91643683167368e-06,-1.07137982221064e-06,5.5586997222902e-07,-1.11805954124066e-06,-1.0473683917842e-06,1.34405931273169e-06,1.26081250872964e-07,1.2272087492279e-06,5.50760930778077e-07,4.84903637965819e-07,3.22822203178357e-06,-2.58618820803196e-07,2.48164729053654e-06,1.73921357043111e-07,3.03856031660232e-06,-5.46394858294659e-07,7.37213491788387e-06,-9.55676968709317e-06,-1.71609422901861e-06,4.71971137943247e-07,-9.75517275803995e-07,-4.64090086014187e-07,-7.74172238340034e-08,3.47198726548175e-07,4.7616559664485e-07,2.73785881378528e-07,3.44187553089092e-06,-5.59713755423435e-07
5.64416730296286e-07,-2.62304029893462e-07,5.59669500615421e-08,3.15851826945349e-08,-6.6110600426024e-07,-3.20626506728238e-07,-1.74104600962034e-06,-7.86483143227226e-07,-5.25176707295102e-06,1.39504005665323e-07,-5.35822769369041e-06,-1.12269450759371e-06,-1.88249394602356e-06,-6.82110538043469e-07,-1.66540128423306e-06,4.71447378260167e-07,-1.84464840905997e-06,-1.17179791584848e-07,-6.27158703508419e-07,-1.23987707719351e-07,-2.06137387704117e-07,6.2803534119792e-08,-1.81886366329415e-06,3.6811500766797e-07,-1.7839927244479e-06,5.55651223840183e-07,-1.95588504723188e-06,9.20749665282698e-07,-1.1207978000251e-06,-1.03340343247096e-07,-1.25836943303909e-07,7.21938423893414e-07,-6.49900420261431e-07,2.35900189153079e-06,-4.52340143725286e-07,5.80796655804375e-07,2.83899660932377e-06,-3.93050990649529e-07,-6.54851713288472e-07,1.46451561171457e-06,-1.61849713223065e-07,3.40848664113971e-08,1.15999226730701e-08,-6.45912786804564e-07,1.90078668749005e-06,-1.06902645956484e-06,5.19046522895482e-07,-1.13073280359878e-06,-1.04151802560874e-06,1.33977820098778e-06,1.69700189064744e-07,1.19785125647366e-06,5.34661193367818e-07,4.97244061359038e-07,3.2318491000761e-06,-2.68983809686884e-07,2.46506931913364e-06,1.48737279599535e-07,2.99943420541106e-06,-5.27484456412491e-07,7.25099580632211e-06,-9.41930889081925e-06,-1.67966489068321e-06,4.58562973275258e-07,-9.15291957051848e-07,-5.0129229882844e-07,-8.40216651286683e-08,3.46362007364204e-07,4.40628338899465e-07,2.80267138339296e-07,3.38306893552878e-06,-5.52585607364899e-07
5.61935262215729e-07,-2.76751878581044e-07,3.64755448948828e-08,3.51640985073705e-08,-6.63608667501444e-07,-3.09883418909904e-07,-1.73477111123864e-06,-7.96231734769014e-07,-5.30897908573817e-06,1.4811214262093e-07,-5.44342244671584e-06,-1.10356810909469e-06,-1.91420648562152e-06,-6.63664618592445e-07,-1.66287736229699e-06,4.59196262254687e-07,-1.82668792618497e-06,-1.10209375330183e-07,-6.27231705719456e-07,-1.30914265011409e-07,-1.54856554137273e-07,4.25814632765931e-08,-1.80573174375717e-06,3.5756173741232e-07,-1.71783584386454e-06,5.27644348076215e-07,-1.91362526520837e-06,8.97721757541911e-07,-1.08997936164235e-06,-9.32100903900119e-08,-1.20178405278838e-07,7.16798023404921e-07,-6.38242215360991e-07,2.34534481214622e-06,-4.60300136060866e-07,5.6354025951275e-07,2.81374541395685e-06,-3.8627450600732e-07,-7.1415697947808e-07,1.49436949974922e-06,-1.87556096666541e-07,3.99133697879128e-08,3.3292437298252e-08,-6.57388968587185e-07,1.88410557480553e-06,-1.06607159161784e-06,4.83035538376006e-07,-1.14411239810425e-06,-1.03283031911432e-06,1.33502938669052e-06,2.15739630290785e-07,1.16732579778013e-06,5.187707404425e-07,5.09580087566414e-07,3.23625732957947e-06,-2.79760109153081e-07,2.44988899871419e-06,1.22815463886018e-07,2.9617871305205e-06,-5.08009239370988e-07,7.12865116799205e-06,-9.27625305443483e-06,-1.6388040800907e-06,4.43336352490836e-07,-8.52824492230262e-07,-5.38875016999939e-07,-8.7804919024868e-08,3.45017595565437e-07,4.10202888362646e-07,2.85832980294024e-07,3.33088562578434e-06,-5.45150438751927e-07
5.63240446688419e-07,-2.92540693772823e-07,2.06963825633017e-08,3.75700995680551e-08,-6.61107011657083e-07,-2.99645865140382e-07,-1.72438113739333e-06,-8.06273472972988e-07,-5.35845817302668e-06,1.55766137209062e-07,-5.5178879800503e-06,-1.08344895902207e-06,-1.94059595983625e-06,-6.46973449355803e-07,-1.65503339014195e-06,4.45253550695037e-07,-1.80395081458263e-06,-1.03429026370944e-07,-6.24946224030524e-07,-1.38071806172518e-07,-9.94414402111036e-08,2.09758461076308e-08,-1.78639753386612e-06,3.45130735143626e-07,-1.64680148051876e-06,4.98081875277085e-07,-1.86548055596882e-06,8.7210542602234e-07,-1.05560967115998e-06,-8.29303763345684e-08,-1.12511145148991e-07,7.1087572539028e-07,-6.24491463756541e-07,2.33018965871237e-06,-4.6712846431559e-07,5.45801154320839e-07,2.7903293053112e-06,-3.80592905016994e-07,-7.69125542338581e-07,1.52301053292967e-06,-2.13386802387163e-07,4.64740133404252e-08,5.66597937666624e-08,-6.69832934298599e-07,1.86636514525395e-06,-1.06246171738472e-06,4.47897432299285e-07,-1.15818867555451e-06,-1.02138155580896e-06,1.32980742580838e-06,2.64028280019856e-07,1.13575346675588e-06,5.03048999177595e-07,5.2191291726631e-07,3.24150079897421e-06,-2.90937310547131e-07,2.43613900870726e-06,9.62020929956112e-08,2.92565187707944e-06,-4.87994910949051e-07,7.0053606489428e-06,-9.12813699031565e-06,-1.59361680417401e-06,4.26339897140688e-07,-7.88111146145108e-07,-5.76795125845456e-07,-8.87444785595479e-08,3.4316738482821e-07,3.84984322676037e-07,2.90462206115813e-07,3.28549760328858e-06,-5.37470625731523e-07
5.68187475590512e-07,-3.09587258987313e-07,8.51726262135918e-09,3.8813154073475e-08,-6.53767233606199e-07,-2.89916313821818e-07,-1.71010161866809e-06,-8.16612878047315e-07,-5.40037185391141e-06,1.62435250376842e-07,-5.58192166758136e-06,-1.06242300972327e-06,-1.96174493507489e-06,-6.32068599957807e-07,-1.64199137127501e-06,4.29634331031132e-07,-1.77637995165718e-06,-9.68442796863195e-08,-6.20358843940969e-07,-1.45440248652956e-07,-4.0072887843428e-08,-1.94713460662476e-09,-1.76103735609678e-06,3.30909811882652e-07,-1.57105658820245e-06,4.67011480702215e-07,-1.81162641389626e-06,8.43974814395352e-07,-1.01780485607942e-06,-7.25363858735141e-08,-1.02853093295162e-07,7.04193751622084e-07,-6.08636408581276e-07,2.31356427091826e-06,-4.72780676429304e-07,5.27573502235343e-07,2.76876519584563e-06,-3.75979871998253e-07,-8.19660584153178e-07,1.55043056291264e-06,-2.39266432329561e-07,5.37332444862862e-08,8.15784559540849e-08,-6.83205581942702e-07,1.84754072437514e-06,-1.05814840632489e-06,4.13686670227222e-07,-1.17294680932266e-06,-1.00725850748452e-06,1.32410891858563e-06,3.14386540570879e-07,1.10325567960984e-06,4.87456097657444e-07,5.34242519939244e-07,3.24762030939985e-06,-3.02499727608426e-07,2.42384238110843e-06,6.89455805582636e-08,2.89105693996147e-06,-4.67470517773649e-07,6.88139433038777e-06,-8.97551291937703e-06,-1.54422422350232e-06,4.07628451810237e-07,-7.2115890772062e-07,-6.1501030695449e-07,-8.68295726900369e-08,3.40815075944406e-07,3.65044707009328e-07,2.94136027131689e-07,3.24704444359534e-06,-5.29607860502955e-07
5.76620556364978e-07,-3.2780530585864e-07,-1.88711269984929e-10,3.89085973632632e-08,-6.41766245843212e-07,-2.8069690078293e-07,-1.69216898047735e-06,-8.27252608974247e-07,-5.43491240202833e-06,1.68095371979286e-07,-5.63585230213348e-06,-1.04057862972932e-06,-1.97775354659714e-06,-6.18972016890818e-07,-1.62389573405403e-06,4.12360439446188e-07,-1.74393601419712e-06,-9.0459965427463e-08,-6.13531668625542e-07,-1.52999838207968e-07,2.30595169786212e-08,-2.61177755866588e-08,-1.72984094065768e-06,3.14989932448382e-07,-1.49078072103466e-06,4.34486193363521e-07,-1.7522522790123e-06,8.13411095229446e-07,-9.76691759842375e-07,-6.20635689614387e-08,-9.12309764404703e-08,6.96776198948083e-07,-5.90676926141319e-07,2.29550089215973e-06,-4.77218988012934e-07,5.08852615857281e-07,2.74906294104075e-06,-3.72406113512465e-07,-8.65687892033424e-07,1.57662264594502e-06,-2.65118241936135e-07,6.16529325502738e-08,1.07919823790834e-07,-6.97463652863598e-07,1.82761171097504e-06,-1.05308863465048e-06,3.80452101918442e-07,-1.18836701027953e-06,-9.90557697437935e-07,1.31793252484962e-06,3.6662719016579e-07,1.0699538797428e-06,4.71953094005297e-07,5.46567632128499e-07,3.25464351251141e-06,-3.14426608416685e-07,2.4130122014369e-06,4.10964915016284e-08,2.858026340415e-06,-4.46468387576205e-07,6.75703128557331e-06,-8.81894739061091e-06,-1.49076320271034e-06,3.87262803927812e-07,-6.51985302287705e-07,-6.53479723668426e-07,-8.20611577380181e-08,3.37966154244608e-07,3.50433040059655e-07,2.96838173567665e-07,3.2156326463326e-06,-5.21622842476932e-07
5.88373847246001e-07,-3.47105941242784e-07,-5.56224907997212e-09,3.78769508014206e-08,-6.2529082933375e-07,-2.71989404981131e-07,-1.67082905781782e-06,-8.3819344037041e-07,-5.46229510209443e-06,1.72729104555309e-07,-5.68003731988624e-06,-1.01800609937265e-06,-1.98873854492174e-06,-6.07696023811477e-07,-1.60091230447635e-06,3.93460399868047e-07,-1.70659763202766e-06,-8.42802803601987e-08,-6.0453210481277e-07,-1.60731199469702e-07,8.97582408371201e-08,-5.14632582103582e-08,-1.69301073541897e-06,2.97464896041346e-07,-1.40616543919416e-06,4.00564216927624e-07,-1.68756079913171e-06,7.80502166002592e-07,-9.32407512369435e-07,-5.15474491267941e-08,-7.76802421302903e-08,6.88648971128272e-07,-5.70624202951983e-07,2.27603598345716e-06,-4.80412205562155e-07,4.89635062764005e-07,2.73122559436648e-06,-3.69839512989228e-07,-9.07155894355059e-07,1.60158112494968e-06,-2.90864287315487e-07,7.01906161482804e-08,1.35551041697567e-07,-7.12559888656768e-07,1.80656192858899e-06,-1.04724507705025e-06,3.4823729775524e-07,-1.20442475571513e-06,-9.71384661865638e-07,1.31127896823723e-06,4.20556079426633e-07,1.03596924691485e-06,4.5650216225844e-07,5.58885777794769e-07,3.2625851136133e-06,-3.26692386113024e-07,2.40365135808822e-06,1.27074457766887e-08,2.82657940276091e-06,-4.25024024508482e-07,6.63255805724406e-06,-8.65901814081982e-06,-1.43338583156868e-06,3.65309390975379e-07,-5.8061819359718e-07,-6.92164660490806e-07,-7.44518922561142e-08,3.34627860579435e-07,3.41175246698573e-07,2.9855499071611e-07,3.19133504719099e-06,-5.13574979456296e-07
6.03272384673111e-07,-3.67398063205466e-07,-7.75694105134661e-09,3.57437286969713e-08,-6.04536821066425e-07,-2.6379522103304e-07,-1.64633561917572e-06,-8.49434248669709e-07,-5.48275648212032e-06,1.76325809745777e-07,-5.71486000728071e-06,-9.94797113343309e-07,-1.99483233506243e-06,-5.98243365562219e-07,-1.57322722368785e-06,3.72969336517855e-07,-1.66436159173503e-06,-7.83088537682562e-08,-5.93432653486019e-07,-1.68615376325296e-07,1.59818544067665e-07,-7.79080435686587e-08,-1.65076125837912e-06,2.784310342278e-07,-1.31741372439641e-06,3.65308729862568e-07,-1.61776709593932e-06,7.45342327593263e-07,-8.85099106605443e-07,-4.10234339346166e-08,-6.22449714101772e-08,6.79839717815478e-07,-5.48500385419903e-07,2.25521001652074e-06,-4.82335636183904e-07,4.69918759313098e-07,2.71524965346139e-06,-3.68245296594136e-07,-9.44035640304857e-07,1.62530171483746e-06,-3.16425629568385e-07,7.92998094108246e-08,1.64335775121943e-07,-7.28443195001539e-07,1.78437991722594e-06,-1.040586339369e-06,3.17080883453646e-07,-1.22109102857726e-06,-9.49853216793619e-07,1.30415102835571e-06,4.75972837045666e-07,1.00142241276664e-06,4.41066732561307e-07,5.7119331064784e-07,3.27144714019084e-06,-3.39266963036752e-07,2.39575234285799e-06,-1.61669955549478e-08,2.79673049290042e-06,-4.03175961777619e-07,6.50826705899527e-06,-8.49631091228911e-06,-1.37225892247428e-06,3.41839998125732e-07,-5.07095586538029e-07,-7.31029107645034e-07,-6.40260973057036e-08,3.30809155976116e-07,3.37274212654784e-07,2.9927552552389e-07,3.17419029505305e-06,-5.05522098972595e-07
6.21132995249946e-07,-3.88588763746201e-07,-6.93828300710196e-09,3.25392348433872e-08,-5.79708345390961e-07,-2.56115330323275e-07,-1.61894890889232e-06,-8.60972007224719e-07,-5.49655253749874e-06,1.7888161835641e-07,-5.74072671586064e-06,-9.71044291835484e-07,-1.99618201875447e-06,-5.90607294697108e-07,-1.54104582091812e-06,3.50928861052832e-07,-1.61724310027443e-06,-7.25488052160376e-08,-5.8031070693022e-07,-1.76633862660548e-07,2.33029162139606e-07,-1.05374254595243e-07,-1.6033184957188e-06,2.57986928038618e-07,-1.22473940896047e-06,3.28787666571762e-07,-1.54309804071842e-06,7.08031947088082e-07,-8.34922985070054e-07,-3.0526628459511e-08,-4.49777802090764e-08,6.70377779357389e-07,-5.24338207838901e-07,2.23306724535395e-06,-4.82970987721842e-07,4.49703053354498e-07,2.70112529435583e-06,-3.67586210150337e-07,-9.76320724914024e-07,1.64778158646437e-06,-3.41722588031624e-07,8.89303621148698e-08,1.94134950187429e-07,-7.45058814411993e-07,1.76105915553182e-06,-1.03308712121599e-06,2.87016866964363e-07,-1.23833256350557e-06,-9.26084737960033e-07,1.29655352027256e-06,5.32671577523479e-07,9.66433183455244e-07,4.25611584588536e-07,5.83485478838525e-07,3.28121926687333e-06,-3.5211602292856e-07,2.38929710520896e-06,-4.54704606634678e-08,2.76848872185438e-06,-3.80965573186707e-07,6.38445490580765e-06,-8.33141625047684e-06,-1.30756348847033e-06,3.16931448993512e-07,-4.31465446506576e-07,-7.70040272631143e-07,-5.08197032096555e-08,3.26520680162915e-07,3.38709857807641e-07,2.98991604470955e-07,3.1642023998031e-06,-4.97520170438952e-07
6.41765187010649e-07,-4.10583716210133e-07,-3.28266885615346e-09,2.82983501042447e-08,-5.51017090930699e-07,-2.48950271778101e-07,-1.58893421643215e-06,-8.72801789517259e-07,-5.50395696111395e-06,1.80399405029619e-07,-5.75806410641186e-06,-9.46840701829029e-07,-1.99294844752631e-06,-5.84771699328969e-07,-1.50459145008149e-06,3.27386935364536e-07,-1.5652761042016e-06,-6.7002792056957e-08,-5.65248352589489e-07,-1.8476862399039e-07,3.09172926693387e-07,-1.33782042480872e-07,-1.55091934404446e-06,2.36233144822665e-07,-1.1283666202317e-06,2.9107348176793e-07,-1.46379154223123e-06,6.68677106571577e-07,-7.82044636668701e-07,-2.00916524087432e-08,-2.59397079135734e-08,6.60294135353941e-07,-4.98180603669247e-07,2.20965545569024e-06,-4.82306264844687e-07,4.28988797310055e-07,2.68883659077809e-06,-3.67822706915503e-07,-1.00402715996874e-06,1.66901944393461e-06,-3.66675028825235e-07,9.90288619956598e-08,2.24807452961706e-07,-7.62348510302306e-07,1.73659820981826e-06,-1.024728306073e-06,2.58074951606533e-07,-1.25611209691502e-06,-9.00207459738013e-07,1.28849326064195e-06,5.90441606641523e-07,9.31120269177456e-07,4.10102894763875e-07,5.95756512970262e-07,3.29187918997176e-06,-3.65201365863297e-07,2.38425696379979e-06,-7.51449110808132e-08,2.74185762060736e-06,-3.58436846352396e-07,6.26142068278634e-06,-8.16492630499868e-06,-1.23949420290875e-06,2.90665291778979e-07,-3.53785554477946e-07,-8.09168992700321e-07,-3.48801818461566e-08,3.21774704209483e-07,3.45439246851492e-07,2.97697904429538e-07,3.16134036121514e-06,-4.89623039349676e-07
6.64972018221282e-07,-4.3328754546826e-07,3.02364342532512e-09,2.30603122731711e-08,-5.18681625933044e-07,-2.4230011327403e-07,-1.55656047936126e-06,-8.84916779438588e-07,-5.50525939039777e-06,1.80888728306383e-07,-5.76731643647881e-06,-9.22279390536561e-07,-1.98530529174383e-06,-5.80711271170439e-07,-1.46410429537657e-06,3.0239771102866e-07,-1.50851364408272e-06,-6.16730468705062e-08,-5.48332183080984e-07,-1.93002110447356e-07,3.88027328984227e-07,-1.63049934833015e-07,-1.49381109257833e-06,2.13271994764296e-07,-1.028529240489e-06,2.52242901028829e-07,-1.38009584636859e-06,6.27389239737758e-07,-7.26638201187882e-07,-9.75246151849107e-09,-5.20009041174026e-09,6.49621354866249e-07,-4.70080303744676e-07,2.18502569157178e-06,-4.80335667564463e-07,4.07778415024769e-07,2.67836171641595e-06,-3.68913145960019e-07,-1.02719318954242e-06,1.68901559097303e-06,-3.91202676927339e-07,1.09539064738706e-07,2.56210786286284e-07,-7.80250764397404e-07,1.7110008123155e-06,-1.01549698407455e-06,2.30280829474033e-07,-1.27438861937545e-06,-8.72355796813498e-07,1.27997901974259e-06,6.4906812218573e-07,8.95601020340585e-07,3.94508238495793e-07,6.07999738678139e-07,3.30339304580887e-06,-3.78481260580542e-07,2.38059257759441e-06,-1.05130795770064e-07,2.71683479418667e-06,-3.3563612067356e-07,6.13946416236506e-06,-7.99743165451993e-06,-1.16825883978518e-06,2.63127482491906e-07,-2.74123410911402e-07,-8.483900289876e-07,-1.62664621468713e-08,3.16585077577934e-07,3.57396738379258e-07,2.95392018881902e-07,3.16553789243393e-06,-4.8188217484753e-07
6.90550943606047e-07,-4.56604179169284e-07,1.17855868556608e-08,1.68684892194282e-08,-4.8292674317502e-07,-2.3616442489496e-07,-1.5220989261678e-06,-8.97308287594394e-07,-5.50076368038778e-06,1.80365736715876e-07,-5.76894290137116e-06,-8.9745293393276e-07,-1.97343812977224e-06,-5.78391712656095e-07,-1.41984015072703e-06,2.7602134625298e-07,-1.4470282198619e-06,-5.65614073706351e-08,-5.29653111438519e-07,-2.01317261645352e-07,4.69365028985863e-07,-1.93095163791634e-07,-1.43225094271303e-06,1.89207307372226e-07,-9.25470382791265e-07,2.12376660733407e-07,-1.29226884801799e-06,5.84284758958339e-07,-6.68886079903692e-07,4.57825921466805e-10,1.71635846060165e-08,6.38393546525084e-07,-4.40099424844215e-07,2.15923195994454e-06,-4.77059497763544e-07,3.86075966451218e-07,2.66967312932894e-06,-3.70814001265297e-07,-1.04587904860354e-06,1.70777198406877e-06,-4.15225444914787e-07,1.20402338591668e-07,2.88201682430029e-07,-7.98700988100509e-07,1.68427587156818e-06,-1.0053864139683e-06,2.03656448835166e-07,-1.29311762920767e-06,-8.42669690302031e-07,1.27102145929802e-06,7.08332907092402e-07,8.59991170860441e-07,3.78796548152136e-07,6.20207714482841e-07,3.31571586591015e-06,-3.91910808978758e-07,2.37825397480906e-06,-1.35367210409301e-07,2.69341156181515e-06,-3.12611792700534e-07,6.01888397831179e-06,-7.82951817301384e-06,-1.09407769409163e-06,2.34408066234674e-07,-1.92556191807224e-07,-8.87682238483659e-07,4.95117327659874e-09,3.10967169967046e-07,3.7449417426672e-07,2.92074522095829e-07,3.17669325012662e-06,-4.74346431676503e-07
7.18294636723899e-07,-4.80437178683623e-07,2.28003546193275e-08,9.77014614998609e-09,-4.43982832474002e-07,-2.305422552235e-07,-1.48582176593545e-06,-9.09965772725748e-07,-5.49078621217875e-06,1.7885304159838e-07,-5.76341504068778e-06,-8.72453003821508e-07,-1.95754356222678e-06,-5.77769981951976e-07,-1.37206917987043e-06,2.4832380104372e-07,-1.38091215213248e-06,-5.16693421130577e-08,-5.09306191196275e-07,-2.09697503931149e-07,5.52954312149171e-07,-2.2383397320043e-07,-1.3665055657279e-06,1.6414422910958e-07,-8.19441884357603e-07,1.7155924009037e-07,-1.2005774193301e-06,5.39484676730609e-07,-6.0897855355045e-07,1.05070963086991e-08,4.10658412678431e-08,6.26646307125692e-07,-4.08309053445289e-07,2.13233091768044e-06,-4.7248407651249e-07,3.63887212982298e-07,2.66273773890943e-06,-3.7348008175214e-07,-1.06016666389922e-06,1.72529227182276e-06,-4.38663774973706e-07,1.3155811450467e-07,3.20636669526277e-07,-8.17631746775674e-07,1.65643741391877e-06,-9.94395927234876e-07,1.78220249227285e-07,-1.31225138651368e-06,-8.11293978926127e-07,1.26163305696234e-06,7.68015011259463e-07,8.24404589515606e-07,3.62938027325224e-07,6.32372394145874e-07,3.32879206080424e-06,-4.05442317822048e-07,2.37718063439253e-06,-1.65792056969828e-07,2.67157258849708e-06,-2.89413991374058e-07,5.89997576364508e-06,-7.66176395537348e-06,-1.01718298267649e-06,2.04600856972926e-07,-1.09170753441827e-07,-9.27028630918004e-07,2.869121163391e-08,3.0493780845924e-07,3.96621110609932e-07,2.87749033893332e-07,3.19466918002018e-06,-4.67061827414147e-07
7.47991785784448e-07,-5.04690048733714e-07,3.58584749594691e-08,1.81620770853095e-09,-4.02085285417285e-07,-2.25432111262053e-07,-1.44800093247283e-06,-9.22876867549847e-07,-5.47565424649569e-06,1.76379557628089e-07,-5.75121422499843e-06,-8.47369956559439e-07,-1.9378283564937e-06,-5.78794574422459e-07,-1.32107466506705e-06,2.19376611331423e-07,-1.31027793112257e-06,-4.69979743480471e-08,-4.87390441116952e-07,-2.18126740404231e-07,6.38559496104851e-07,-2.55181904375097e-07,-1.2968506990699e-06,1.38189043285677e-07,-7.10703818352711e-07,1.29878587172033e-07,-1.1052967604699e-06,4.93114226500996e-07,-5.47113408830857e-07,2.03644005742135e-08,6.64133993959633e-08,6.14416667548653e-07,-3.74788830767387e-07,2.10438154935091e-06,-4.66621671431782e-07,3.41219683950922e-07,2.65751705655863e-06,-3.76864761611577e-07,-1.07015929660543e-06,1.74158182134254e-06,-4.61438993488269e-07,1.42944337452425e-07,3.5337259049985e-07,-8.36972995326377e-07,1.62750445160144e-06,-9.8253077422145e-07,1.53987358809373e-07,-1.33173916718494e-06,-7.78377794969379e-07,1.25182801917872e-06,8.27891419003498e-07,7.88953040037647e-07,3.46904023310761e-07,6.44485311266288e-07,3.34255592545273e-06,-4.19025673196358e-07,2.37730161516295e-06,-1.96342199446737e-07,2.65129551438968e-06,-2.66094226234456e-07,5.78303026234323e-06,-7.49473632503698e-06,-9.37818225245342e-07,1.73803115979291e-07,-2.40636761280462e-08,-9.6641632331056e-07,5.48610553443103e-08,2.98515210572134e-07,4.23645091646228e-07,2.82422287187461e-07,3.21929298588302e-06,-4.60071336005906e-07
7.79427861517968e-07,-5.29266525099844e-07,5.07448844178006e-08,-6.93898443837169e-09,-3.57473934387583e-07,-2.20831941804517e-07,-1.4089068888089e-06,-9.36027408604679e-07,-5.45570433002322e-06,1.7298031226654e-07,-5.73282923433296e-06,-8.22292445715004e-07,-1.91450862453524e-06,-5.81405838743465e-07,-1.26715175038807e-06,1.89256642949868e-07,-1.23525853951347e-06,-4.25481044029227e-08,-4.6400867343086e-07,-2.26589334014134e-07,7.25941292601914e-07,-2.8705405993132e-07,-1.22357077642222e-06,1.11449011969746e-07,-5.99524021800301e-07,8.74258404164655e-08,-1.00670977613065e-06,4.45302487665594e-07,-4.83495570723225e-07,3.00001056130018e-08,9.31053812474401e-08,6.01743035031065e-07,-3.39626544499205e-07,2.07544484603999e-06,-4.59490430302703e-07,3.1808274293783e-07,2.65396733179223e-06,-3.80920218928641e-07,-1.07598112492676e-06,1.75664773419115e-06,-4.83473680978375e-07,1.54497917830813e-07,3.86267075554353e-07,-8.56652324254803e-07,1.5975007734508e-06,-9.69801912401073e-07,1.30969749908616e-07,-1.35152751694378e-06,-7.44073983335354e-07,1.24162218485673e-06,8.87737701212826e-07,7.53745950170769e-07,3.30666861951406e-07,6.56537783236525e-07,3.35693216265086e-06,-4.32608713918973e-07,2.37853573098261e-06,-2.26953613188902e-07,2.63255059085076e-06,-2.42705012664286e-07,5.66833142967938e-06,-7.3289889500658e-06,-8.56237602202068e-07,1.42115228997895e-07,6.26586725592249e-08,-1.00583641245767e-06,8.33571928217046e-08,2.91718913814071e-07,4.55411970417416e-07,2.7610419878712e-07,3.25035673198196e-06,-4.53414698317854e-07
8.12385859052203e-07,-5.54070840162942e-07,6.72399947899299e-08,-1.6437917970271e-08,-3.10392519151868e-07,-2.16739123887394e-07,-1.36880749481391e-06,-9.49401469947567e-07,-5.43128075845275e-06,1.68696225517141e-07,-5.7087539332389e-06,-7.97307060147597e-07,-1.88780903387592e-06,-5.85536325462123e-07,-1.2106061822069e-06,1.58045826497244e-07,-1.15600772576177e-06,-3.83202291343993e-08,-4.39267323087342e-07,-2.35070084216825e-07,8.14857132849711e-07,-3.19365344982021e-07,-1.14695858173756e-06,8.40322380083455e-08,-4.86177634377057e-07,4.42950470556293e-08,-9.05106476254361e-07,3.96182017745091e-07,-4.18336734278192e-07,3.93860364321421e-08,1.21033544348798e-07,5.88665130881958e-07,-3.02917729781589e-07,2.04558349434553e-06,-4.51114314734259e-07,2.94487651503171e-07,2.65203967610227e-06,-3.85597679509581e-07,-1.07777676253829e-06,1.77049885605757e-06,-5.04692061912387e-07,1.66155181812969e-07,4.19178971615281e-07,-8.76595216326614e-07,1.56645465739303e-06,-9.56225739415105e-07,1.09176349757929e-07,-1.37156050573736e-06,-7.08538540807013e-07,1.23103292345875e-06,9.47328652292985e-07,7.18890189781677e-07,3.14199650467541e-07,6.68521131315739e-07,3.37183642278172e-06,-4.46137600880136e-07,2.38079177193986e-06,-2.57561527072653e-07,2.61530033246791e-06,-2.19299478628357e-07,5.55615453907518e-06,-7.16505909204198e-06,-7.72705284147826e-07,1.09640381911562e-07,1.50880082516732e-07,-1.04528379220599e-06,1.14065399108625e-07,2.84569702267897e-07,4.91746282255432e-07,2.68807941652349e-07,3.28761758890712e-06,-4.47128249257568e-07
8.46647017390536e-07,-5.79007966358871e-07,8.5120750593542e-08,-2.66201598001046e-08,-2.6108816952061e-07,-2.13150452708565e-07,-1.32796693877568e-06,-9.62981400707624e-07,-5.40273409807945e-06,1.63573861430388e-07,-5.67948504413345e-06,-7.72497988046271e-07,-1.85796205028753e-06,-5.91111165593118e-07,-1.15175304845398e-06,1.25830874107278e-07,-1.07270020571163e-06,-3.43145562563572e-08,-4.13276274968147e-07,-2.43554197983453e-07,9.050614642703e-07,-3.52030685176938e-07,-1.06731491677671e-06,5.60475443070225e-08,-3.70946642410243e-07,5.82879873038775e-10,-8.00783396824983e-07,3.45888492235928e-07,-3.51854989918086e-07,4.8495608237152e-08,1.50082542546503e-07,5.75223922816784e-07,-2.64765278744434e-07,2.01486158134617e-06,-4.41523025895322e-07,2.7044762722524e-07,2.65168017751249e-06,-3.90847662378464e-07,-1.07571070711247e-06,1.78314578476608e-06,-5.2502041609314e-07,1.77852317452779e-07,4.51968732482237e-07,-8.96725313543012e-07,1.53439850604421e-06,-9.41823775096126e-07,8.86131040858123e-08,-1.39177998241373e-06,-6.71930072302905e-07,1.22007903214833e-06,1.00643891127348e-06,6.84489858047937e-07,2.9747605423753e-07,6.80426912400604e-07,3.38717585757844e-06,-4.59557180007531e-07,2.38396876959129e-06,-2.88100559258578e-07,2.59949919152651e-06,-1.95930956917691e-07,5.44676431345042e-06,-7.00346500561432e-06,-6.87494729116578e-07,7.64842344358833e-08,2.40474476433006e-07,-1.08475693685904e-06,1.46860969863786e-07,2.77089530656697e-07,5.32451676653627e-07,2.60550015651505e-07,3.33079832832849e-06,-4.41244759644331e-07
8.81991518570064e-07,-6.03983837938017e-07,1.0416167290269e-07,-3.74226091145216e-08,-2.0981089575837e-07,-2.10062136467625e-07,-1.28664473380684e-06,-9.7674786655568e-07,-5.37041976819402e-06,1.57665152969439e-07,-5.64552002405557e-06,-7.47946706068213e-07,-1.82520721118098e-06,-5.98048476865652e-07,-1.09091551964037e-06,9.27029790471058e-08,-9.85531780635093e-07,-3.05310118108705e-08,-3.86148686291905e-07,-2.52027256160327e-07,9.96306024895836e-07,-3.84965221573275e-07,-9.84948273414017e-07,2.76043673225096e-08,-2.54119423383809e-07,-4.36116467301285e-08,-6.94043036173405e-07,2.94560350670381e-07,-2.84274438203403e-07,5.73039478427476e-08,1.8013021590311e-07,5.61461551375867e-07,-2.2527905588331e-07,1.98334431799021e-06,-4.30751913861849e-07,2.45977892429081e-07,2.65283000928141e-06,-3.96620223408196e-07,-1.06996671267306e-06,1.79460087982958e-06,-5.44387507812172e-07,1.89525812141765e-07,4.84498772254957e-07,-9.16964692398613e-07,1.50136840613733e-06,-9.26622294678637e-07,6.92829922475933e-08,-1.41212582892961e-06,-6.3440926092798e-07,1.20878063630777e-06,1.06484356595306e-06,6.50646079563319e-07,2.80470053907854e-07,6.92247156490051e-07,3.40284968449336e-06,-4.72811336991028e-07,2.38795630204147e-06,-3.18504848170187e-07,2.58509325870152e-06,-1.72652566293252e-07,5.34041309716945e-06,-6.84470349931224e-06,-6.0088794608264e-07,4.27545915228185e-08,3.31305921780447e-07,-1.1242576535703e-06,1.81608990952236e-07,2.69301446327273e-07,5.77311410841978e-07,2.5135031453701e-07,3.37958796822066e-06,-4.35793290552142e-07
9.18199166858862e-07,-6.28905551876999e-07,1.24135884559528e-07,-4.87797531698446e-08,-1.56813082604131e-07,-2.07469797790632e-07,-1.24509477985189e-06,-9.90679895215114e-07,-5.3346966868724e-06,1.51027102121383e-07,-5.60735505300607e-06,-7.23731691424041e-07,-1.78979042843094e-06,-6.06259795364094e-07,-1.02842359517888e-06,5.87574989635162e-08,-8.94719364495162e-07,-2.69692398180926e-08,-3.58000801390289e-07,-2.60475176207506e-07,1.08834010223519e-06,-4.18084483043868e-07,-9.00174500906658e-07,-1.18733858224622e-09,-1.35990285650047e-07,-8.81874608831104e-08,-5.85193300677213e-07,2.42338446526888e-07,-2.15824788853552e-07,6.57880041622903e-08,2.11047910323577e-07,5.47421250279108e-07,-1.84575516227252e-07,1.9510977820323e-06,-4.1884186357923e-07,2.2109571034865e-07,2.6554255368889e-06,-4.02865193837175e-07,-1.06074707915293e-06,1.80487827453118e-06,-5.62725025488631e-07,2.01112877930229e-07,5.16633784185117e-07,-9.37234144114948e-07,1.46740361180011e-06,-9.10651911373627e-07,5.11859944765785e-08,-1.43253621322426e-06,-5.96138347705976e-07,1.19715909575255e-06,1.12231874048137e-06,6.17456809220768e-07,2.63155690493606e-07,7.03974603502011e-07,3.41874975978157e-06,-4.8584334208085e-07,2.39263483584553e-06,-3.48708180554641e-07,2.57201999501334e-06,-1.49516785332125e-07,5.2373390810025e-06,-6.68924766036325e-06,-5.13174723529731e-07,8.56107282963806e-09,4.23228671571909e-07,-1.1637907894166e-06,2.18164646457051e-07,2.61229509584393e-07,6.26088908444613e-07,2.4123218756417e-07,3.43364257165351e-06,-4.30799058653846e-07
9.55050049587217e-07,-6.53681549344232e-07,1.44816113549141e-07,-6.06239253723544e-08,-1.02348981050374e-07,-2.05368482236313e-07,-1.20356449001616e-06,-1.00475492617526e-06,-5.29592598048076e-06,1.43721457430719e-07,-5.56548313823741e-06,-6.99928154449317e-07,-1.75196331671161e-06,-6.15650530364635e-07,-9.64612856061205e-07,2.4093623606305e-08,-8.00500905383073e-07,-2.36285935934732e-08,-3.28951755142342e-07,-2.68884172316114e-07,1.18091078705367e-06,-4.51304537689408e-07,-8.13316453942739e-07,-3.0217189957644e-08,-1.68589953268923e-08,-1.33041717303764e-07,-4.74546950820114e-07,1.89365698880973e-07,-1.46740934322441e-07,7.39266479172776e-08,2.4270082961262e-07,5.33147260823573e-07,-1.42777323657052e-07,1.91818868220981e-06,-4.05839152866049e-07,1.95820406681451e-07,2.6593984284508e-06,-4.09532411027294e-07,-1.04827185172797e-06,1.81399389036182e-06,-5.79968025171435e-07,2.12551862841265e-07,5.48241028583083e-07,-9.57453457096782e-07,1.43254595484655e-06,-8.93947105388624e-07,3.43190141400556e-08,-1.45294784064918e-06,-5.57280615323033e-07,1.18523691699119e-06,1.17864216917936e-06,5.85016646300481e-07,2.45506807216699e-07,7.15602934712013e-07,3.43476116170435e-06,-4.98596183398647e-07,2.3978761061506e-06,-3.78644118626556e-07,2.56020800435983e-06,-1.26575024592677e-07,5.13776458786855e-06,-6.53754473749831e-06,-4.24651819633566e-07,-2.59852187760311e-08,5.16087225450377e-07,-1.20336387576017e-06,2.56373569993744e-07,2.5289871273696e-07,6.78528390022393e-07,2.30222493114108e-07,3.4925862078763e-06,-4.26283312494348e-07
9.92325184203158e-07,-6.78221779548145e-07,1.65975674657751e-07,-7.28855651729481e-08,-4.66741874919608e-08,-2.03752672398527e-07,-1.16229397712862e-06,-1.01894886472088e-06,-5.25446975328052e-06,1.35814371353029e-07,-5.52039233058984e-06,-6.76607789877103e-07,-1.71198254022699e-06,-6.26120440098565e-07,-8.99823221815331e-07,-1.11859720353772e-08,-7.03135176689996e-07,-2.05081187002678e-08,-2.99123360617324e-07,-2.77240713893069e-07,1.27376323519212e-06,-4.84542125357147e-07,-7.24703604755735e-07,-5.93744608758848e-08,1.02969719646096e-07,-1.78070080909099e-07,-3.62421037902211e-07,1.35786744777879e-07,-7.72624854194313e-08,8.1700760770953e-08,2.74948423488436e-07,5.18684740606514e-07,-1.0001296660756e-07,1.88468414580073e-06,-3.91795279659679e-07,1.70173375608622e-07,2.66467577444396e-06,-4.16571939623805e-07,-1.03277792240821e-06,1.82196545426316e-06,-5.96055374496766e-07,2.23782647378046e-07,5.79190595284815e-07,-9.77541700733963e-07,1.39683919158114e-06,-8.76545700590967e-07,1.86757598109228e-08,-1.473296204776e-06,-5.17999869668725e-07,1.17303767138475e-06,1.23359376020824e-06,5.53416658823323e-07,2.27496796373229e-07,7.27126996326698e-07,3.4507627869493e-06,-5.11012887396511e-07,2.4035435401239e-06,-4.08246128972729e-07,2.5495768585662e-06,-1.03877204689696e-07,5.04189442497552e-06,-6.39001417071094e-06,-3.35622108888244e-07,-6.07720288611809e-08,6.09716412593146e-07,-1.242986703151e-06,2.96072245312544e-07,2.44334898054652e-07,7.34355585031257e-07,2.18351639654879e-07,3.55601208736943e-06,-4.22263220826845e-07
1.02980715705361e-06,-7.02437847946201e-07,1.87389431211169e-07,-8.54934794101132e-08,9.95489974662443e-09,-2.02616304371591e-07,-1.12151529537546e-06,-1.03323614026624e-06,-5.21068991104494e-06,1.27376040026157e-07,-5.47256404372494e-06,-6.53838545830755e-07,-1.67010916969372e-06,-6.37564126029892e-07,-8.34397709214371e-07,-4.69754880862223e-08,-6.02901415442779e-07,-1.76065282915006e-08,-2.68639877007244e-07,-2.85531483344011e-07,1.36664094910634e-06,-5.1771477373123e-07,-6.34671605524867e-07,-8.85481718101447e-08,2.23186697388744e-07,-2.23167009735895e-07,-2.49136324685405e-07,8.17475922502946e-08,-7.63325857867779e-09,8.90933137801417e-08,3.07644813588115e-07,5.04079667044797e-07,-5.64163672945919e-08,1.850651530331e-06,-3.76766756442107e-07,1.44178069786893e-07,2.67118022199387e-06,-4.23934281634968e-07,-1.01451802813386e-06,1.82881252026233e-06,-6.10930197117394e-07,2.34747026524704e-07,6.09355646576837e-07,-9.97417511182109e-07,1.36032830005721e-06,-8.58488295086614e-07,4.24659330979619e-09,-1.49351583868003e-06,-4.78459914244047e-07,1.1605859195698e-06,1.28695615151504e-06,5.22744219195089e-07,2.0909835814083e-07,7.38543013595542e-07,3.46662796208385e-06,-5.23036825198197e-07,2.40949272843738e-06,-4.374477162334e-07,2.54003698515893e-06,-8.14713481003745e-08,4.9499143118356e-06,-6.24704576070774e-06,-2.46393680739454e-07,-9.56862833634802e-08,7.03941509325862e-07,-1.28267083706451e-06,3.37088461038169e-07,2.35564674661119e-07,7.93278532939021e-07,2.05653608978176e-07,3.62348387960795e-06,-4.18751774914168e-07
1.06728075718671e-06,-7.26243150789575e-07,2.08834737709981e-07,-9.83751048597833e-08,6.72816505577677e-08,-2.01952782601751e-07,-1.08145173286345e-06,-1.04758976888208e-06,-5.16494703261817e-06,1.18480328342234e-07,-5.42247146713918e-06,-6.31684409816233e-07,-1.62660804249809e-06,-6.49871543077138e-07,-7.68681192033197e-07,-8.31663723697978e-08,-5.00098795218923e-07,-1.49221720974178e-08,-2.37627755327001e-07,-2.93743333912368e-07,1.45928608724817e-06,-5.50740900557501e-07,-5.4356179250599e-07,-1.1762718444398e-07,3.43478908596778e-07,-2.68226037309853e-07,-1.35016686270855e-07,2.73952736789181e-08,6.18992915663546e-08,9.60894347532412e-08,3.40639257693034e-07,4.89378736153544e-07,-1.21264792666948e-08,1.81615825759244e-06,-3.60814870502319e-07,1.17859974102405e-07,2.67883012667344e-06,-4.31570573076628e-07,-9.93759642255826e-07,1.83455649706705e-06,-6.24540320264975e-07,2.45389079938618e-07,6.38612645586359e-07,-1.01699937995039e-06,1.32305874142717e-06,-8.39817652520289e-07,-8.98164895696106e-09,-1.51354056742884e-06,-4.38824014540451e-07,1.14790714267087e-06,1.33851526059633e-06,4.93082851500941e-07,1.902832778017e-07,7.49848792952761e-07,3.4822250701537e-06,-5.34612003529729e-07,2.41557194681423e-06,-4.66182563188909e-07,2.53148962440147e-06,-5.94031906730633e-08,4.8619894026204e-06,-6.10899798172183e-06,-1.57278887209526e-07,-1.3061442205419e-07,7.98578411743667e-07,-1.32242909962314e-06,3.79241822537875e-07,2.26615334301276e-07,8.54988476832507e-07,1.92165958806981e-07,3.69453721765398e-06,-4.15757707075505e-07
1.10453360625875e-06,-7.49552998039294e-07,2.30092362887978e-07,-1.11456771820725e-07,1.25049799792233e-07,-2.01754989559531e-07,-1.04231715188511e-06,-1.06198141996978e-06,-5.11759928378499e-06,1.09204383528577e-07,-5.37057806450924e-06,-6.10205210891818e-07,-1.58174711954868e-06,-6.62928523058956e-07,-7.03019161828371e-07,-1.19647703879124e-07,-3.95045725576753e-07,-1.24530000463023e-08,-2.06215360235273e-07,-3.01863248072132e-07,1.55143980809524e-06,-5.83539904627489e-07,-4.51720625208414e-07,-1.4650030514023e-07,4.6353006758515e-07,-3.13140054989558e-07,-2.03884867646994e-08,-2.71225019344729e-08,1.31084699599378e-07,1.0267646417461e-07,3.73776652863334e-07,4.74629256665217e-07,3.27131324921822e-08,1.78127166648321e-06,-3.44005409936818e-07,9.12465636942118e-08,2.68753972236418e-06,-4.39432763254696e-07,-9.70783757822938e-07,1.83922068218169e-06,-6.3683872984346e-07,2.55655536576193e-07,6.66841574586409e-07,-1.03620594534976e-06,1.28507569697437e-06,-8.2057805759773e-07,-2.10258528099942e-08,-1.53330376213161e-06,-3.99254350729123e-07,1.13502768039873e-06,1.38806083098335e-06,4.64512090141873e-07,1.71022228758721e-07,7.61043908507087e-07,3.4974181933531e-06,-5.45683339200336e-07,2.4216227284694e-06,-4.94384676616682e-07,2.52382686071343e-06,-3.77158166049813e-08,4.77826292974831e-06,-5.97619645220356e-06,-6.85933359800225e-08,-1.65442735426486e-07,8.93433883857338e-07,-1.36227504490501e-06,4.22344323398838e-07,2.17514765917218e-07,9.19160850966085e-07,1.77929804531348e-07,3.76868139268098e-06,-4.13285427671757e-07
1.14135678613033e-06,-7.72284726857993e-07,2.50947393282773e-07,-1.24663968600127e-07,1.83004072693099e-07,-2.02015287872866e-07,-1.00431537284293e-06,-1.07638148731096e-06,-5.0690013667486e-06,9.96282405811533e-08,-5.31733614657801e-06,-5.89456437388842e-07,-1.53579683122601e-06,-6.76617308538851e-07,-6.37756487803102e-07,-1.56306585823042e-07,-2.88078964783799e-07,-1.01965211605273e-08,-1.74532666183923e-07,-3.09878296735198e-07,1.6428426572744e-06,-6.16032248415709e-07,-3.59499051947172e-07,-1.75056399346748e-07,5.8302129488306e-07,-3.57801595012947e-07,9.44200759863498e-08,-8.1657699995053e-08,1.99670184022123e-07,1.0884399973005e-07,4.06898080429521e-07,4.5987903898378e-07,7.7954734255059e-08,1.74605888169195e-06,-3.26408356179182e-07,6.43672475075717e-08,2.69721930959022e-06,-4.47473772597148e-07,-9.45883561521683e-07,1.84283030283558e-06,-6.47784037925396e-07,2.65496142775716e-07,6.93926148046719e-07,-1.05495628596216e-06,1.24642329313893e-06,-8.00814638133284e-07,-3.19068317783222e-08,-1.55273859578275e-06,-3.5991145716351e-07,1.12197467580816e-06,1.43538698092366e-06,4.37107349145568e-07,1.51284609259546e-07,7.72129869362522e-07,3.51206777528004e-06,-5.56196916928175e-07,2.42748049003835e-06,-5.21988537596934e-07,2.51693173485026e-06,-1.6449319629512e-08,4.69885499793624e-06,-5.84893258310636e-06,1.93451764204666e-08,-2.00057707100661e-07,9.88305893457739e-07,-1.40222244113636e-06,4.66200979597549e-07,2.08291368973582e-07,9.85456365661969e-07,1.6298978083523e-07,3.84540124339697e-06,-4.1133498220476e-07
1.17754546753423e-06,-7.94357808042324e-07,2.71190118794363e-07,-1.37921606822212e-07,2.40890844907844e-07,-2.02725513974018e-07,-9.67639596599965e-07,-1.09075916496663e-06,-5.01950349689665e-06,8.98344227219593e-08,-5.26318550521143e-06,-5.69489070211734e-07,-1.4890294037306e-06,-6.90817094259546e-07,-5.73236171846409e-07,-1.93028547075654e-07,-1.79552528523494e-07,-8.14975886904785e-09,-1.42710925910435e-07,-3.17775599452263e-07,1.73323500710603e-06,-6.48139535685567e-07,-2.67251792239611e-07,-2.03184519298405e-07,7.01631838696807e-07,-4.02103115053835e-07,2.09079666892037e-07,-1.36062316838109e-07,2.67401416878285e-07,1.14583929704904e-07,4.39841396957468e-07,4.45176277927143e-07,1.23446893554948e-07,1.71058669687893e-06,-3.08097543631025e-07,3.72532987426841e-08,2.70777546505241e-06,-4.55647627347709e-07,-9.19362998119189e-07,1.84541256482319e-06,-6.5734096598439e-07,2.74864043043368e-07,7.19754025548543e-07,-1.07317021492832e-06,1.20714383093679e-06,-7.80572660464927e-07,-4.16495316021051e-08,-1.57177830084892e-06,-3.20953647242478e-07,1.10877602648689e-06,1.48029276061908e-06,4.10939801261994e-07,1.3103841944986e-07,7.8311026550592e-07,3.52603130717121e-06,-5.66100231301054e-07,2.43297521512628e-06,-5.48929256145727e-07,2.51067844365365e-06,4.35950706329018e-09,4.62386155386132e-06,-5.72746242331809e-06,1.06217796596773e-07,-2.34346363764755e-07,1.08298403593565e-06,-1.44228475258627e-06,5.10610529140955e-07,1.9897396542928e-07,1.05352219483216e-06,1.47393983703209e-07,3.92415924495583e-06,-4.09902029617158e-07
1.21289954297578e-06,-8.15693947830946e-07,2.90616901426269e-07,-1.51154287562364e-07,2.98458841309123e-07,-2.03876963382974e-07,-9.32471860926941e-07,-1.10508252836489e-06,-4.96945039859848e-06,7.99075396965895e-08,-5.20855209723016e-06,-5.50349432184696e-07,-1.44171815815509e-06,-7.0540457352367e-07,-5.09798095639109e-07,-2.29697950984801e-07,-6.98363843237978e-08,-6.30920472258174e-09,-1.10882310035489e-07,-3.25542285914786e-07,1.82235755523638e-06,-6.79784587595773e-07,-1.75336530112525e-07,-2.30774047483506e-07,8.19039860053901e-07,-4.45937285168527e-07,3.23260558842266e-07,-1.9018874389905e-07,3.34023371947716e-07,1.19890455384429e-07,4.72441873886501e-07,4.30569427840595e-07,1.69034980295316e-07,1.67492147200365e-06,-2.89150286573781e-07,9.9377732936513e-09,2.71911127728209e-06,-4.63909572683573e-07,-8.91535227468634e-07,1.84699671022006e-06,-6.65480842855868e-07,2.83716179994271e-07,7.44217028957002e-07,-1.09076857418905e-06,1.16727704072114e-06,-7.59896812857689e-07,-5.02832245758222e-08,-1.59035642781898e-06,-2.82536422863023e-07,1.09546034176333e-06,1.52258272247759e-06,3.8607626573231e-07,1.1025018298987e-07,7.93990890738868e-07,3.53916404025082e-06,-5.75342414113133e-07,2.4379321977296e-06,-5.75142730594691e-07,2.50493263178529e-06,2.4677450045638e-08,4.55335355033564e-06,-5.61200571994872e-06,1.91705813562726e-07,-2.68196634357925e-07,1.17725004029094e-06,-1.48247460448405e-06,5.55366197954973e-07,1.89591710182087e-07,1.12299327018323e-06,1.31193893065532e-07,4.0043977973298e-06,-4.08977842521106e-07
1.24722426432916e-06,-8.36217187516804e-07,3.09031026220555e-07,-1.64286568350378e-07,3.55459871261042e-07,-2.0546036820975e-07,-8.98982529648801e-07,-1.11931862041708e-06,-4.91918031367881e-06,6.99338863874962e-08,-5.15384677233216e-06,-5.32079053628772e-07,-1.39413677709469e-06,-7.20254487151718e-07,-4.47777759424874e-07,-2.66198410522586e-07,4.06850648984397e-08,-4.6707721718937e-09,-7.91795178163916e-08,-3.3316545930518e-07,1.90995188485852e-06,-7.1089152056459e-07,-8.41130175011351e-08,-2.57714858037435e-07,9.34923282827572e-07,-4.89197278020895e-07,4.36633431178013e-07,-2.43890142071294e-07,3.9928125003062e-07,1.24760102329845e-07,5.04532886132985e-07,4.16107068603545e-07,2.14561702039357e-07,1.63912904433792e-06,-2.69646974255338e-07,-1.75445825636452e-08,2.73112661327033e-06,-4.7221616745381e-07,-8.62720978376928e-07,1.84761408266945e-06,-6.72182109204452e-07,2.92013714242711e-07,7.67211367086031e-07,-1.10767352838097e-06,1.12685938561799e-06,-7.38830497381075e-07,-5.78416849553195e-08,-1.60840710320575e-06,-2.44811868481707e-07,1.08205690476991e-06,1.56206750634794e-06,3.62579103440111e-07,8.88849159940365e-08,8.04779840564211e-07,3.55131972350683e-06,-5.83874448132851e-07,2.4421728437808e-06,-6.00565810477358e-07,2.49955177708046e-06,4.44751222415847e-08,4.48737631997517e-06,-5.50274521067377e-06,2.75491923843631e-07,-3.0149771951277e-07,1.27087835666095e-06,-1.52280322196428e-06,6.00256530668651e-07,1.8017399978871e-07,1.19349368399958e-06,1.14444275977015e-07,4.08554170817708e-06,-4.08549329930296e-07
1.28033088335636e-06,-8.55854003238621e-07,3.26243531705483e-07,-1.77243231057724e-07,4.11649593792135e-07,-2.07465867493809e-07,-8.67329815270613e-07,-1.13343354213308e-06,-4.86902401779446e-06,6.00010439025995e-08,-5.0994640428422e-06,-5.14714553920099e-07,-1.34655853498336e-06,-7.35240172971973e-07,-3.87505013354857e-07,-3.02413208712927e-07,1.51614697298073e-07,-3.2297501225244e-09,-4.77353597242198e-08,-3.40632162231534e-07,1.99576108732449e-06,-7.41385828482512e-07,6.05791149803984e-09,-2.83897497687803e-07,1.04896070817143e-06,-5.31777063054538e-07,5.4887022446234e-07,-2.9702082892581e-07,4.62921478254758e-07,1.29191720457503e-07,5.35946648848622e-07,4.01837761389319e-07,2.59867675582836e-07,1.60327465226731e-06,-2.49670636393428e-07,-4.51574334211476e-08,2.7437184193568e-06,-4.80525363442845e-07,-8.33246804942017e-07,1.84729819638924e-06,-6.77430812044588e-07,2.99722457476422e-07,7.88637870617394e-07,-1.123808858056e-06,1.08592343640431e-06,-7.17415151748774e-07,-6.43633365521443e-08,-1.62586528538577e-06,-2.07928029563895e-07,1.06859563712507e-06,1.59856444123662e-06,3.40506118109645e-07,6.69061462517419e-08,8.15487581988331e-07,3.562351365869e-06,-5.91649368103897e-07,2.44551552707525e-06,-6.25136459810588e-07,2.4943856710766e-06,6.37271746872851e-08,4.4259491726121e-06,-5.39982616598845e-06,3.57261559649784e-07,-3.34140471201827e-07,1.3636368362255e-06,-1.56327985024672e-06,6.45066284399284e-07,1.70750379314159e-07,1.26463820224575e-06,9.72030692537333e-08,4.16700086424072e-06,-4.0859908307847e-07
1.31203729370511e-06,-8.74533408204833e-07,3.42074017593189e-07,-1.89949550621466e-07,4.66788308616899e-07,-2.09882971152571e-07,-8.37659335507271e-07,-1.14739254734135e-06,-4.8193038398657e-06,5.01974849078416e-08,-5.04578089136369e-06,-4.98287539007493e-07,-1.2992554877177e-06,-7.50234114143754e-07,-3.29302781181924e-07,-3.38225723252574e-07,2.62544580111063e-07,-1.98075388908056e-09,-1.66823121898923e-08,-3.47929346052829e-07,2.07953044906872e-06,-7.71194471172184e-07,9.48154167293331e-08,-3.09213387482574e-07,1.16083239344454e-06,-5.73571704831474e-07,6.59645054677811e-07,-3.49436680861426e-07,5.24692782030234e-07,1.33186473179835e-07,5.66515001691286e-07,3.87809893616356e-07,3.04792035878516e-07,1.56742287080896e-06,-2.29306482039432e-07,-7.28629629690146e-08,2.75678105851223e-06,-4.88796571211654e-07,-8.03443251676765e-07,1.84608480434793e-06,-6.81221067052046e-07,3.06813305532581e-07,8.08402240107579e-07,-1.13910025102836e-06,1.04449733714378e-06,-6.95689619128851e-07,-6.98913633712624e-08,-1.64266701711597e-06,-1.72028274024323e-07,1.05510706336645e-06,1.63189816601416e-06,3.1991046242689e-07,4.42759861850846e-08,8.2612699215702e-07,3.57211202329951e-06,-5.98622449957931e-07,2.44777649734129e-06,-6.48793918455609e-07,2.48927699782104e-06,8.24124703436944e-08,4.36906522978513e-06,-5.30335619778666e-06,4.36704277423304e-07,-3.66017781322621e-07,1.45528752164124e-06,-1.60391117481163e-06,6.8957738410292e-07,1.61350447234224e-07,1.33603389016501e-06,7.95312400208942e-08,4.24817308686833e-06,-4.09105445193487e-07
1.3421686741267e-06,-8.92187059376914e-07,3.56351428558241e-07,-2.02331564511664e-07,5.20641773633924e-07,-2.12700519027771e-07,-8.10103702896062e-07,-1.16116014156558e-06,-4.77033267945551e-06,4.06121845214392e-08,-4.99315561039801e-06,-4.82824515544251e-07,-1.25249761658973e-06,-7.65108484964935e-07,-2.73485775177576e-07,-3.73519854278126e-07,3.73058063725941e-07,-9.17670752465295e-10,1.38479552773313e-08,-3.55043844374107e-07,2.16100820495216e-06,-8.00245970494943e-07,1.8179982000869e-07,-3.33555046110429e-07,1.27022129575976e-06,-6.14477665362835e-07,7.68635189487157e-07,-4.00995551535216e-07,5.84347328512818e-07,1.36747816002025e-07,5.9607023935362e-07,3.74071513141786e-07,3.49173082555315e-07,1.53163755762856e-06,-2.08641415152872e-07,-1.00621987561707e-07,2.7702066859726e-06,-4.96990714165383e-07,-7.73642934659608e-07,1.84401196152858e-06,-6.83555464859199e-07,3.13262655990981e-07,8.26415309260398e-07,-1.15347558977404e-06,1.00260437484847e-06,-6.73689578069497e-07,-7.44737743296826e-08,-1.65874967389361e-06,-1.37250634852615e-07,1.04162227273663e-06,1.66190127126314e-06,3.00840548423888e-07,2.09552620062536e-08,8.36713363765309e-07,3.58045561148715e-06,-6.04751389760611e-07,2.44877084034201e-06,-6.7147886264848e-07,2.48406201361471e-06,1.00514216407921e-07,4.31669150409935e-06,-5.21340534406016e-06,5.13515202256539e-07,-3.97024976907326e-07,1.54558756221945e-06,-1.64470076110387e-06,7.33569937455007e-07,1.52003758333419e-07,1.407281850156e-06,6.14926236455581e-08,4.32844716607521e-06,-4.10042606551352e-07
1.37055813157279e-06,-9.08749370327345e-07,3.68914812207248e-07,-2.14316342809488e-07,5.7298204925787e-07,-2.15906637527214e-07,-7.84782147241958e-07,-1.17470018541789e-06,-4.72241301876857e-06,3.13342377239676e-08,-4.9419266711541e-06,-4.68346822688252e-07,-1.20655192324116e-06,-7.79735693121482e-07,-2.20359203010162e-07,-4.08180454245898e-07,4.8273205128608e-07,-3.3598564256725e-11,4.37250793997849e-08,-3.61962351377338e-07,2.2399463569422e-06,-8.28470515087916e-07,2.66653862422446e-07,-3.5681633475285e-07,1.3768141781428e-06,-6.54393110201343e-07,8.75522086489561e-07,-4.5155770739228e-07,6.4164193679197e-07,1.39881464642479e-07,6.2444598477294e-07,3.60670152352887e-07,3.92848963749468e-07,1.49598180773795e-06,-1.87763531604592e-07,-1.28394073369196e-07,2.78388566529597e-06,-5.05070272729567e-07,-7.44178547548363e-07,1.8411200790795e-06,-6.84445398465911e-07,3.19052795282415e-07,8.42593323823259e-07,-1.1668652328343e-06,9.60262659237928e-07,-6.51447038766987e-07,-7.8163413819882e-08,-1.67405220711973e-06,-1.03727133613539e-07,1.02817287722554e-06,1.68841496167517e-06,2.83339961882836e-07,-3.09630108829021e-09,8.47264376651756e-07,3.58723774241182e-06,-6.09996474376528e-07,2.44831348964202e-06,-6.93133569116328e-07,2.47857132705126e-06,1.1802005189565e-07,4.26876922071414e-06,-5.1300064286351e-06,5.87396519391716e-07,-4.27060219015289e-07,1.63429025692568e-06,-1.68564852848552e-06,7.76823304944716e-07,1.42739724510028e-07,1.47797906678534e-06,4.31537398488726e-08,4.40720606174578e-06,-4.11380726281498e-07
1.39704733939894e-06,-9.24157631676317e-07,3.79614046784051e-07,-2.25832258674628e-07,6.23588364159853e-07,-2.19488696680543e-07,-7.61800173120852e-07,-1.18797600284516e-06,-4.67583592948846e-06,2.24524840324187e-08,-4.89241162524156e-06,-4.54870582766405e-07,-1.16168147542484e-06,-7.93988917543611e-07,-1.70217470624175e-07,-4.42093758858901e-07,5.91139424758908e-07,6.79223006559017e-10,7.28205261556925e-08,-3.68671405467612e-07,2.31610155297728e-06,-8.55800074250371e-07,3.49024043150781e-07,-3.78892722375248e-07,1.48030277371405e-06,-6.93218218229716e-07,9.79992489322858e-07,-5.00986279823469e-07,6.96339345845786e-07,1.42595352328713e-07,6.5147809922469e-07,3.47652643285472e-07,4.35658396834699e-07,1.46051791388963e-06,-1.66761603899617e-07,-1.56137654816412e-07,2.79770702656814e-06,-5.12999321010045e-07,-7.15380803443757e-07,1.83745196456888e-06,-6.83911290184434e-07,3.24172239612925e-07,8.56858234780865e-07,-1.17920228890689e-06,9.17484913238254e-07,-6.28989907699798e-07,-8.10179107225747e-08,-1.68851538060748e-06,-7.1583086829289e-08,1.01479096582887e-06,1.71128973558672e-06,2.67447380534472e-07,-2.79198404164486e-08,8.57800036479002e-07,3.59231658047817e-06,-6.14320745881897e-07,2.44622028799534e-06,-7.13702088537537e-07,2.47263077554859e-06,1.34922088015887e-07,4.22521436780112e-06,-5.05315568402993e-06,6.58059000536694e-07,-4.56024902359848e-07,1.72114622109141e-06,-1.72675027253589e-06,8.19117218675499e-07,1.33587513382396e-07,1.5477203501102e-06,2.4583587867345e-08,4.48383025424409e-06,-4.13086081849936e-07
1.42148716344475e-06,-9.38352140254261e-07,3.88310532352243e-07,-2.36809258834409e-07,6.72247992277989e-07,-2.23433269507409e-07,-7.41249256604576e-07,-1.20095049431912e-06,-4.63088007732964e-06,1.40551400009287e-08,-4.84490604616375e-06,-4.42406672266272e-07,-1.11814440513537e-06,-8.07742641116962e-07,-1.23342886484298e-07,-4.75147817980765e-07,6.97851607328718e-07,1.22948893018656e-09,1.0100813416124e-07,-3.75157378551002e-07,2.38923601994922e-06,-8.82168521073281e-07,4.28562031593059e-07,-3.99681570034571e-07,1.58038500285425e-06,-7.30855495031535e-07,1.08173957488162e-06,-5.49147731100777e-07,7.48209530915295e-07,1.44899575960188e-07,6.77005623465628e-07,3.35064924961227e-07,4.77441425783966e-07,1.42530732851127e-06,-1.45724559265525e-07,-1.83810152454523e-07,2.81155896700384e-06,-5.20743558048181e-07,-6.8757632564082e-07,1.83305284378882e-06,-6.81982699558225e-07,3.28616012132857e-07,8.69138004280249e-07,-1.19042288270973e-06,8.74278373545286e-07,-6.0634162091181e-07,-8.3099559173698e-08,-1.70208199892154e-06,-4.09363985235564e-08,1.00150905508443e-06,1.73038607785776e-06,2.53196495413058e-07,-5.35570675246682e-08,8.68342582527581e-07,3.5955537138897e-06,-6.1769016143296e-07,2.44230909615098e-06,-7.33130433814319e-07,2.46606239396972e-06,1.51216899858879e-07,4.18591845793774e-06,-4.98281361829089e-06,7.25223552943633e-07,-4.83824053253759e-07,1.80590467515365e-06,-1.76799725593695e-06,8.60232943028755e-07,1.24575944630946e-07,1.6161003679717e-06,5.85342089511227e-09,4.55770122459577e-06,-4.15121246036491e-07
1.44373826962461e-06,-9.51276337856493e-07,3.9487783992438e-07,-2.47179133593203e-07,7.18757132111565e-07,-2.27726094243046e-07,-7.2320658521769e-07,-1.21358625480983e-06,-4.58781072742928e-06,6.22943976059768e-09,-4.7996825158204e-06,-4.30960714619407e-07,-1.07619286047965e-06,-8.20873177485215e-07,-8.00043713147869e-08,-5.07232925556579e-07,8.02441248947618e-07,1.62691318753994e-09,1.2816467550376e-07,-3.81406471229383e-07,2.45911854664934e-06,-9.07511764631335e-07,5.04926148041467e-07,-4.19082433426972e-07,1.67676623936368e-06,-7.67210089249334e-07,1.1804641454732e-06,-5.95912329481259e-07,7.97031061304884e-07,1.46806331315749e-07,7.00871745376297e-07,3.22951843841553e-07,5.18040214469514e-07,1.39041062279346e-06,-1.24740953552161e-07,-2.11368090727446e-07,2.82532939130958e-06,-5.28270334133654e-07,-6.61085501606969e-07,1.82797036050782e-06,-6.78698300754768e-07,3.32385840044445e-07,8.79366923293956e-07,-1.20046641126998e-06,8.30644802294196e-07,-5.83520846504597e-07,-8.44751252698315e-08,-1.71469712645742e-06,-1.18968423069286e-08,9.88360035538625e-07,1.74557516356908e-06,2.40615934206846e-07,-8.00499329295241e-08,8.78916366782212e-07,3.59681503852691e-06,-6.20073749904877e-07,2.43640094806006e-06,-7.51366787596745e-07,2.45868547151803e-06,1.66905469018886e-07,4.15074948287725e-06,-4.91890610379734e-06,7.88622781326598e-07,-5.10366723961499e-07,1.88831485964805e-06,-1.80937589380663e-06,8.99954471166324e-07,1.15733384099694e-07,1.68271575851061e-06,-1.29634999086848e-08,4.628205045525e-06,-4.17445290143664e-07
1.46367170899067e-06,-9.62876960001949e-07,3.99202314755497e-07,-2.56875785798103e-07,7.62921782755582e-07,-2.32352039486844e-07,-7.0773484413041e-07,-1.22584569630735e-06,-4.54687875328396e-06,-9.38716668515362e-10,-4.75698966011763e-06,-4.20533095355639e-07,-1.03607191285342e-06,-8.33259191145286e-07,-4.04561769157725e-08,-5.38242047591811e-07,9.04485024673243e-07,1.88231963284051e-09,1.5417043139558e-07,-3.87404714292037e-07,2.52552551290628e-06,-9.3176789084843e-07,5.77782909459558e-07,-4.36997383715689e-07,1.76916062101538e-06,-8.0219011066746e-07,1.27587586114841e-06,-6.41154629202901e-07,8.42592492579045e-07,1.48329837908775e-07,7.22924789280809e-07,3.11356948130218e-07,5.57299873409924e-07,1.35588743945796e-06,-1.03898440510996e-07,-2.38767219008316e-07,2.83890648608336e-06,-5.35548670812291e-07,-6.36220315136118e-07,1.82225455089786e-06,-6.74105726956411e-07,3.35490261132209e-07,8.87485939682116e-07,-1.20927578867854e-06,7.86580611975496e-07,-5.60541258125296e-07,-8.52155754866195e-08,-1.72630829656164e-06,1.54346632680353e-08,9.75377113690924e-07,1.75673956985734e-06,2.29729185329881e-07,-1.07440246548545e-07,8.89547705651166e-07,3.59597165155002e-06,-6.21443766278558e-07,2.42832125043141e-06,-7.68361731593799e-07,2.45031769175781e-06,1.81993077595878e-07,4.11955304453712e-06,-4.86132566592306e-06,8.48002552428971e-07,-5.3556638141257e-07,1.96812757936123e-06,-1.8508675562628e-06,9.3806975111223e-07,1.07087635792166e-07,1.7471673130656e-06,-3.1792170874499e-08,4.69473606391275e-06,-4.20014011776602e-07
1.48116947646161e-06,-9.73104194468394e-07,4.01183630050741e-07,-2.65835498160704e-07,8.04558610214894e-07,-2.372950729945e-07,-6.9488205175774e-07,-1.23769117475937e-06,-4.50831965342268e-06,-7.36510793350302e-09,-4.71705124185868e-06,-4.11118998928311e-07,-9.98018423587292e-07,-8.44782210039905e-07,-4.93662024469703e-09,-5.68071247112584e-07,1.003566526309e-06,2.00773547230106e-09,1.78909779168566e-07,-3.93137976975478e-07,2.58824195789775e-06,-9.54877311432253e-07,6.46808632940005e-07,-4.53331346662038e-07,1.85729239649366e-06,-8.35706948304723e-07,1.36769450603414e-06,-6.8475395227945e-07,8.84693781785151e-07,1.49486254176896e-07,7.43019219496724e-07,3.00322276867556e-07,5.95069314999227e-07,1.32179643661253e-06,-8.32832360154029e-08,-2.65962640528553e-07,2.8521793211989e-06,-5.42549273095515e-07,-6.13282172079289e-07,1.8159577885507e-06,-6.68261285388953e-07,3.37944635734838e-07,8.93442993802127e-07,-1.21679767749038e-06,7.4207710440212e-07,-5.37411382652865e-07,-8.53957248910977e-08,-1.73686570984503e-06,4.09667811165625e-08,9.62593749226556e-07,1.76377399038582e-06,2.20554522149125e-07,-1.35769258021659e-07,9.00264704841629e-07,3.59290074933118e-06,-6.21775844312135e-07,2.41790101965852e-06,-7.84068497044873e-07,2.44077634675296e-06,1.96489154483236e-07,4.09215364061786e-06,-4.80993294799066e-06,9.03123548476166e-07,-5.59341287570045e-07,2.04509686770513e-06,-1.89244849867989e-06,9.74371933249773e-07,9.86658320327134e-08,1.80906221675032e-06,-5.05561294535696e-08,4.75670065065249e-06,-4.22780185900892e-07
1.49612503724025e-06,-9.81911848739132e-07,4.00735285552581e-07,-2.73997198226115e-07,8.43495792789436e-07,-2.42538235769021e-07,-6.84681449139887e-07,-1.24908512132622e-06,-4.47235258303939e-06,-1.2967529531179e-08,-4.68006532514254e-06,-4.02708465968406e-07,-9.62259877862785e-07,-8.5532712986183e-07,2.63331573158135e-08,-5.96620104830791e-07,1.09927921652772e-06,2.01648234176743e-09,2.02271785906376e-07,-3.98591982444052e-07,2.64706267716226e-06,-9.76782920181842e-07,7.11691084391648e-07,-4.67992459172296e-07,1.94089729736058e-06,-8.676755866492e-07,1.45565127834802e-06,-7.26594868755466e-07,9.23147710062354e-07,1.50293583682986e-07,7.61016648218022e-07,2.89888145082865e-07,6.31202130868768e-07,1.28819521980298e-06,-6.29795789186844e-08,-2.92908952615921e-07,2.86503847193285e-06,-5.49244533660599e-07,-5.92559735401421e-07,1.80913469514068e-06,-6.61229548461851e-07,3.39771064770026e-07,8.97193357773277e-07,-1.22298270584833e-06,6.97120822328611e-07,-5.14134526106153e-07,-8.50938055178507e-08,-1.74632242032139e-06,6.46184778358421e-08,9.50043587350947e-07,1.76658594389401e-06,2.13104928203093e-07,-1.65077202851305e-07,9.1109705808641e-07,3.58748652189887e-06,-6.21049147333931e-07,2.40497814350065e-06,-7.98443232085471e-07,2.42987961278088e-06,2.10407075350767e-07,4.0683560757628e-06,-4.76455832303568e-06,9.53762792833098e-07,-5.81614868332321e-07,2.11898174787302e-06,-1.93408991560756e-06,1.00866062937335e-06,9.04943222331608e-08,1.86801633146008e-06,-6.91777548924073e-08,4.81352098918502e-06,-4.25693838381176e-07
1.50844381376712e-06,-9.89257525056814e-07,3.97785044645724e-07,-2.81302720073328e-07,8.79573833360099e-07,-2.48063623498086e-07,-6.77151447617442e-07,-1.25999017759763e-06,-4.43917940938579e-06,-1.7666126320538e-08,-4.64620352651231e-06,-3.95286470052321e-07,-9.29013195301802e-07,-8.6478270917954e-07,5.31503947084311e-08,-6.23792134133443e-07,1.19122941606122e-06,1.92326109254992e-09,2.24150803895036e-07,-4.03752330869881e-07,2.70179333841504e-06,-9.97430256087437e-07,7.72131159809294e-07,-4.80892441566045e-07,2.01972392364367e-06,-8.98014918086712e-07,1.53949009081199e-06,-7.66567670209185e-07,9.57781297702266e-07,1.50771573162978e-07,7.76786837922331e-07,2.80092926530098e-07,6.65557485451136e-07,1.25514025851899e-06,-4.30691919377354e-08,-3.19560399410105e-07,2.8773766568746e-06,-5.55608529334282e-07,-5.74326785058794e-07,1.80184201232566e-06,-6.53082826688161e-07,3.40998218412386e-07,8.9869997505601e-07,-1.22778567016269e-06,6.51694010401024e-07,-4.90708780155467e-07,-8.43909568149044e-08,-1.7546345077736e-06,8.63197360512046e-08,9.37760385594142e-07,1.76509646790283e-06,2.07388025638213e-07,-1.95402820137938e-07,9.220758212675e-07,3.5796210363608e-06,-6.19246516194678e-07,2.38939865256672e-06,-8.11445279269056e-07,2.41744787459986e-06,2.23763918481687e-07,4.04794696612427e-06,-4.72500361655904e-06,9.99715132454466e-07,-6.023160681583e-07,2.18954805986593e-06,-1.97575810468613e-06,1.0407431737044e-06,8.25985608560321e-08,1.92365650517645e-06,-8.75785845517769e-08,4.86463887346656e-06,-4.28702541256754e-07
1.51804362811367e-06,-9.95102801541226e-07,3.92275305485645e-07,-2.87697061599028e-07,9.12646332647398e-07,-2.53852377143273e-07,-6.72295637385939e-07,-1.27036933398306e-06,-4.40898379842065e-06,-2.13837199406566e-08,-4.61561036264731e-06,-3.88833013307491e-07,-8.98483525574838e-07,-8.73042054219512e-07,7.53318716502821e-08,-6.49495189007063e-07,1.27903930763203e-06,1.74422841345949e-09,2.44447064196976e-07,-4.08604530502198e-07,2.75225160984803e-06,-1.01676767273443e-06,8.27844590574866e-07,-4.91946984068641e-07,2.09353513414033e-06,-9.26648049470346e-07,1.61896886846557e-06,-8.0456882948785e-07,9.88437201040492e-07,1.50941603444837e-07,7.90208690174626e-07,2.70972835873721e-07,6.98001020841177e-07,1.22268678362454e-06,-2.36307460142274e-08,-3.45871036839261e-07,2.88908938691173e-06,-5.61617008989164e-07,-5.58840117331932e-07,1.7941384327309e-06,-6.43900528993814e-07,3.41661083786387e-07,8.97933798234387e-07,-1.23116572330119e-06,6.05775178926502e-07,-4.67127106064349e-07,-8.33706409351071e-08,-1.7617612350905e-06,1.0601225192186e-07,9.25777934185333e-07,1.75924079047741e-06,2.03406009737682e-07,-2.26782845821888e-07,9.33233163597605e-07,3.56920510349777e-06,-6.16354612939345e-07,2.37101798750965e-06,-8.23037456095578e-07,2.40330508683804e-06,2.36580179386071e-07,4.0306963105133e-06,-4.69104390506543e-06,1.04079466545313e-06,-6.21379688303525e-07,2.25657032161076e-06,-2.01741472142873e-06,1.07043587771334e-06,7.50029952151721e-08,1.97562289139419e-06,-1.05679643493476e-07,4.90951948865307e-06,-4.31751728829327e-07
1.52485509779593e-06,-9.99413417648813e-07,3.84163404347721e-07,-2.93128636059741e-07,9.42580724472777e-07,-2.59884684103586e-07,-6.70102857264509e-07,-1.28018607022575e-06,-4.38193033829385e-06,-2.40461314446722e-08,-4.5884026988484e-06,-3.83323239792333e-07,-8.70863036333551e-07,-8.80003091818426e-07,9.27150185209561e-08,-6.73641863424786e-07,1.36234994843708e-06,1.4970641301564e-09,2.63067265497777e-07,-4.13134037197658e-07,2.79826829604418e-06,-1.03474651334362e-06,8.78563666306555e-07,-5.01076146813847e-07,2.16210943372931e-06,-9.53502600847438e-07,1.69386083193206e-06,-8.40501439123591e-07,1.01497508242169e-06,1.50826574240847e-07,8.01171213310343e-07,2.62561712583301e-07,7.28405767922043e-07,1.1908886640869e-06,-4.73933120151426e-09,-3.71794909398845e-07,2.90007561978925e-06,-5.67247370641951e-07,-5.46337497867443e-07,1.7860843907692e-06,-6.33768414323589e-07,3.41800640639522e-07,8.94874123296629e-07,-1.23308654830623e-06,5.59339758877798e-07,-4.43377485887753e-07,-8.21179865237896e-08,-1.76766518977505e-06,1.23650112155242e-07,9.1412996949414e-07,1.74896897395671e-06,2.01155592124815e-07,-2.59251483578543e-07,9.44602095973506e-07,3.55614912181336e-06,-6.12364058794278e-07,2.34970224861923e-06,-8.33186332348213e-07,2.38728016133995e-06,2.48879447734065e-07,4.01635910930314e-06,-4.66242936242079e-06,1.07683610383548e-06,-6.38746706997146e-07,2.31983359033752e-06,-2.05901709941119e-06,1.09756527097851e-06,6.77309536967766e-08,2.02357126172119e-06,-1.23401784052914e-07,4.94765514856375e-06,-4.34785033686554e-07
1.528821983536e-06,-1.0021594620711e-06,3.73421849970183e-07,-2.97549516437449e-07,9.69258974254799e-07,-2.66139791361886e-07,-6.70547325690417e-07,-1.28940449707802e-06,-4.35816370556923e-06,-2.55824989927303e-08,-4.56466930293693e-06,-3.78727565101014e-07,-8.46329702090809e-07,-8.85569028862923e-07,1.05158968142784e-07,-6.96149880468185e-07,1.4408242761197e-06,1.20102687818216e-09,2.79925154757141e-07,-4.1732630283054e-07,2.83968847374589e-06,-1.05132129051521e-06,9.24038965153406e-07,-5.08204772656656e-07,2.2252423479468e-06,-9.78510994693761e-07,1.76395575331804e-06,-8.74275621385393e-07,1.03727294120313e-06,1.50450783663329e-07,8.09574460375131e-07,2.54890808903373e-07,7.566530568728e-07,1.15979826418181e-06,1.35340622492576e-08,-3.97286237943444e-07,2.91023841354059e-06,-5.72478625430287e-07,-5.37035683690665e-07,1.77774181606055e-06,-6.22777735012521e-07,3.41463470302951e-07,8.89508918176703e-07,-1.23351651823545e-06,5.12360832964233e-07,-4.19443128094018e-07,-8.07190658045311e-08,-1.7723124089477e-06,1.39200442547986e-07,9.02850080800669e-07,1.73424652356983e-06,2.00627954392294e-07,-2.9283985497635e-07,9.56216174516321e-07,3.54037389134508e-06,-6.07269565219289e-07,2.32532941351886e-06,-8.41862498922929e-07,2.36920836728454e-06,2.60688050677223e-07,4.00467701572934e-06,-4.63888713296887e-06,1.10769605995535e-06,-6.54364579789023e-07,2.37913528674151e-06,-2.10051860577889e-06,1.12196931912296e-06,6.08045349262433e-08,2.06717529300194e-06,-1.40666031829108e-07,4.97856896131192e-06,-4.37744641815455e-07
1.52990148568561e-06,-1.00331556105987e-06,3.60038486218862e-07,-3.00915671116803e-07,9.92578237320287e-07,-2.72596032198264e-07,-6.7358883417421e-07,-1.29798949847359e-06,-4.33780788211683e-06,-2.59255899371001e-08,-4.5444705133524e-06,-3.75011820701844e-07,-8.25046105232221e-07,-8.89648796468643e-07,1.12545539078619e-07,-7.16942469132462e-07,1.51415008076981e-06,8.76994439714119e-10,2.94942094889772e-07,-4.21166832729596e-07,2.87637261611468e-06,-1.06644986981873e-06,9.64041075925793e-07,-5.13262910847773e-07,2.28274777233216e-06,-1.00161073438172e-06,1.82906117034892e-06,-9.05808903722189e-07,1.05522838951142e-06,1.49839803257554e-07,8.15330427831999e-07,2.47988584006097e-07,7.8263341775109e-07,1.12946628491954e-06,3.11230476958031e-08,-4.22299616699257e-07,2.91948557103558e-06,-5.77291346829784e-07,-5.31128531059602e-07,1.76917385265017e-06,-6.11024270652402e-07,3.4070129926414e-07,8.81835142858967e-07,-1.232428843286e-06,4.648099292012e-07,-3.9530271937494e-07,-7.92601108446089e-08,-1.7756724872094e-06,1.52644017827896e-07,8.91971611342082e-07,1.71505495302313e-06,2.01808713124937e-07,-3.27575431118614e-07,9.681091771566e-07,3.52181138819965e-06,-6.01070056494089e-07,2.29779050764216e-06,-8.49040823133574e-07,2.34893272943308e-06,2.72034666932334e-07,3.99538000431664e-06,-4.62012321456175e-06,1.13325424365882e-06,-6.68187517748553e-07,2.43428694844265e-06,-2.1418690088198e-06,1.14349860881999e-06,5.42444984541304e-08,2.10612880907187e-06,-1.57393934306008e-07,5.00181839190046e-06,-4.40571665366467e-07
1.52806448538318e-06,-1.00286106517141e-06,3.44016579821772e-07,-3.03187189299445e-07,1.01245147174563e-06,-2.79230867485982e-07,-6.79173004762294e-07,-1.30590687378593e-06,-4.32096543130568e-06,-2.50121063303961e-08,-4.52783803108601e-06,-3.72137411965699e-07,-8.07158261351175e-07,-8.92157477041957e-07,1.14780139530611e-07,-7.3594872655037e-07,1.5820429125735e-06,5.47484957232801e-10,3.08047614320432e-07,-4.24641251993394e-07,2.90819769401405e-06,-1.08009365680656e-06,9.98362294850631e-07,-5.16186248201083e-07,2.33445928402631e-06,-1.02274467086168e-06,1.88900354495359e-06,-9.35026554195305e-07,1.06875985635514e-06,1.49020349362851e-07,8.18363906455645e-07,2.41880506088602e-07,8.06247460584614e-07,1.09994159502986e-06,4.79663258647772e-08,-4.46790217036767e-07,2.92773026753671e-06,-5.81667604054506e-07,-5.28785206624098e-07,1.76044454695328e-06,-5.98607254628796e-07,3.39570478601738e-07,8.71859058395057e-07,-1.22980170594672e-06,4.16657868774105e-07,-3.70930722167602e-07,-7.7826675692509e-08,-1.77771866722737e-06,1.63975822100415e-07,8.81527555149754e-07,1.69139230042303e-06,2.04677896894211e-07,-3.63481449314755e-07,9.80314753759658e-07,3.50040549195306e-06,-5.93768781662373e-07,2.26699071338281e-06,-8.5470068620478e-07,2.32630541128955e-06,2.82949915914726e-07,3.9881880439855e-06,-4.60582434032857e-06,1.15341455799744e-06,-6.80176740488774e-07,2.48511589358265e-06,-2.18301485244895e-06,1.1620174902817e-06,4.80701576670819e-08,2.14014795771113e-06,-1.7350790781715e-07,5.01699869151716e-06,-4.43206530652666e-07
1.52329572866325e-06,-1.00078023242545e-06,3.25374831648508e-07,-3.04328494547155e-07,1.02880800320983e-06,-2.86020940839034e-07,-6.87231611505842e-07,-1.31312347981722e-06,-4.30771684040359e-06,-2.27829828105575e-08,-4.51477484044376e-06,-3.70061489066797e-07,-7.92794480078993e-07,-8.9301671213432e-07,1.117925831305e-07,-7.53103963331555e-07,1.64424890138191e-06,2.36656188727835e-10,3.19179933966834e-07,-4.27735380421354e-07,2.93505824519915e-06,-1.09221778736726e-06,1.02681828187243e-06,-5.16916543949952e-07,2.38023140542841e-06,-1.04186125676769e-06,1.94362935547029e-06,-9.61861872911921e-07,1.0778077068248e-06,1.48020151474513e-07,8.18613277439442e-07,2.36588863926135e-07,8.27406724699159e-07,1.07127105725977e-06,6.40081453503175e-08,-4.70713996230332e-07,2.93489165368165e-06,-5.8559087930498e-07,-5.30148518938051e-07,1.75161850782627e-06,-5.85628203121685e-07,3.38131403609602e-07,8.59596521996841e-07,-1.22561838363511e-06,3.6787566349486e-07,-3.46297721099687e-07,-7.65027519882934e-08,-1.77842791376192e-06,1.73205550273052e-07,8.71550451527621e-07,1.66327358987354e-06,2.09209935941842e-07,-4.00576319865763e-07,9.9286605337203e-07,3.47611266017609e-06,-5.85373413278439e-07,2.23285040680655e-06,-8.58826200698396e-07,2.30118907232381e-06,2.93465926019887e-07,3.98281277041274e-06,-4.59565985713876e-06,1.16810608334322e-06,-6.9030070058376e-07,2.53146678865759e-06,-2.22389984581798e-06,1.1774051685656e-06,4.22992757330476e-08,2.16897330500913e-06,-1.88931578797365e-07,5.02374616610861e-06,-4.45589378605665e-07
1.51559395402323e-06,-9.97062405741686e-07,3.04147312002787e-07,-3.04308544856461e-07,1.04159404077447e-06,-2.92942145108488e-07,-6.97682964461744e-07,-1.31960737200704e-06,-4.29811993428322e-06,-1.91836757422274e-08,-4.50525525887283e-06,-3.6873712983568e-07,-7.82064271886236e-07,-8.92155088751975e-07,1.0353780959996e-07,-7.68350029772164e-07,1.70054746784728e-06,-2.97193903526132e-11,3.28286467599472e-07,-4.30435315775525e-07,2.95686740283319e-06,-1.1027913212602e-06,1.04924966221348e-06,-5.15402064797479e-07,2.41994081084246e-06,-1.05891478745471e-06,1.9928061145057e-06,-9.86256437936634e-07,1.08233526453114e-06,1.46867817895362e-07,8.160312469047e-07,2.32132589276077e-07,8.46034487609729e-07,1.04349935518633e-06,7.91987383918844e-08,-4.9402791088812e-07,2.94089542704053e-06,-5.89045969860542e-07,-5.35333387540701e-07,1.74276054364092e-06,-5.72189663205374e-07,3.36447880370374e-07,8.45073264289249e-07,-1.21986735743741e-06,3.18435456185614e-07,-3.21370818155278e-07,-7.5369846949265e-08,-1.77778097233854e-06,1.8035804188321e-07,8.62072278674592e-07,1.63073123391111e-06,2.15373665980111e-07,-4.38873029307129e-07,1.00579533290627e-06,3.44890254468413e-06,-5.75896130581454e-07,2.19530611291272e-06,-8.61406407860162e-07,2.27345818824057e-06,3.0361588646442e-07,3.97895915837546e-06,-4.58928360683445e-06,1.17728394003213e-06,-6.98535276279374e-07,2.57320311601104e-06,-2.26446527255009e-06,1.18955673473999e-06,3.69479654010666e-08,2.19237183039649e-06,-2.03590117182709e-07,5.02174125749467e-06,-4.47660475468297e-07
1.50497196341395e-06,-9.91702182275248e-07,2.80383320225365e-07,-3.03101017711598e-07,1.05077313858222e-06,-2.99969697540916e-07,-7.10432355191088e-07,-1.32532794408526e-06,-4.29220936590691e-06,-1.41644422645891e-08,-4.49922511581612e-06,-3.68113533817434e-07,-7.75057312508972e-07,-8.89508501644634e-07,8.99965024335716e-08,-7.81635620737901e-07,1.75075389986879e-06,-2.2430580027163e-10,3.35324290799408e-07,-4.32727524927026e-07,2.97355787253811e-06,-1.11178743838212e-06,1.06552355646192e-06,-5.1159801675341e-07,2.45348746542679e-06,-1.07386562865931e-06,2.0364233058125e-06,-1.00816030699118e-06,1.08232972371425e-06,1.45592698564655e-07,8.1058551055028e-07,2.28527091726397e-07,8.62066523920136e-07,1.01666882445101e-06,9.34947303737913e-08,-5.16690135310815e-07,2.94567436553711e-06,-5.92018877209108e-07,-5.44425467867373e-07,1.73393528245157e-06,-5.58393899189561e-07,3.34586446536805e-07,8.28325143503067e-07,-1.21254240619227e-06,2.68311491930501e-07,-2.96114069492664e-07,-7.4506033892593e-08,-1.77576241354831e-06,1.85473638972897e-07,8.53124346744965e-07,1.59381536960302e-06,2.23132348531374e-07,-4.78378547227239e-07,1.01913355023753e-06,3.41875854257375e-06,-5.65353684991922e-07,2.15431137066252e-06,-8.62435455579961e-07,2.24300032074326e-06,3.13433587975588e-07,3.97632719499651e-06,-4.58633581763855e-06,1.18093001861225e-06,-7.0486393039362e-07,2.610208528976e-06,-2.30465040989032e-06,1.19838412662658e-06,3.20305934408748e-08,2.21013880534575e-06,-2.17410562464945e-07,5.01071140832022e-06,-4.49360632082352e-07
1.49145663432173e-06,-9.84699572086189e-07,2.54147167327188e-07,-3.00684478618462e-07,1.05632659333664e-06,-3.07078222207775e-07,-7.25372563985655e-07,-1.33025606520795e-06,-4.28999619053117e-06,-7.68060760826326e-09,-4.49660206200951e-06,-3.68136227607692e-07,-7.71842478190188e-07,-8.85020489004559e-07,7.1175594478837e-08,-7.92916557009419e-07,1.79472176126351e-06,-3.18282766749742e-10,3.40260572814758e-07,-4.34598942107122e-07,2.985082845775e-06,-1.11918363713986e-06,1.07553502047399e-06,-5.05466969906719e-07,2.48079568384027e-06,-1.08668043033864e-06,2.07439323433105e-06,-1.02753217796215e-06,1.07780293636281e-06,1.44224744831149e-07,8.02259339207405e-07,2.25784108108762e-07,8.75451805382223e-07,9.90819290342336e-07,1.06859519712843e-07,-5.38660283806654e-07,2.94916881602536e-06,-5.9449668554341e-07,-5.5747995016151e-07,1.72520678119196e-06,-5.44341535835767e-07,3.32615654467741e-07,8.09398371099365e-07,-1.20364268662706e-06,2.17481104413847e-07,-2.70488952827646e-07,-7.39849859294074e-08,-1.77236066360032e-06,1.88608459819009e-07,8.44737189098737e-07,1.55259411963322e-06,2.32443710863254e-07,-5.19093244098097e-07,1.03290994390165e-06,3.38567827408867e-06,-5.53767445640521e-07,2.10983749932718e-06,-8.6191275684723e-07,2.2097173219266e-06,3.22952958418754e-07,3.9746135497599e-06,-4.58644500730689e-06,1.1790535671028e-06,-7.09277834285094e-07,2.64238807653331e-06,-2.34439293738017e-06,1.20381700834781e-06,2.75596904900386e-08,2.22209953849422e-06,-2.3032214434473e-07,4.99043368113254e-06,-4.50631629863755e-07
1.47508887000233e-06,-9.76060143569492e-07,2.25517880112515e-07,-2.97042531683623e-07,1.0582537673354e-06,-3.14241839458767e-07,-7.42384428786553e-07,-1.33436421367932e-06,-4.29146753053074e-06,3.07181133090395e-10,-4.49727600886473e-06,-3.68747282337357e-07,-7.72466964665969e-07,-8.7864253883331e-07,4.71086532407004e-08,-8.02156040818553e-07,1.83234510043597e-06,-2.81453063263173e-10,3.43072965689799e-07,-4.36037073191097e-07,2.99141683896581e-06,-1.12496193420874e-06,1.07920837755735e-06,-4.9697927164625e-07,2.50181509622245e-06,-1.09733232585762e-06,2.10665178477819e-06,-1.04433951127408e-06,1.06879206177568e-06,1.42794366142678e-07,7.91052077083554e-07,2.23911568910725e-07,8.86153135765535e-07,9.65987911259762e-07,1.19263622964867e-07,-5.598996336264e-07,2.9513271324738e-06,-5.96467431650646e-07,-5.74520547983923e-07,1.71663812884668e-06,-5.30130177059183e-07,3.3060532791533e-07,7.88349703969941e-07,-1.19317280085089e-06,1.65925702529198e-07,-2.44454856348014e-07,-7.38750031225346e-08,-1.76756802186215e-06,1.89834581478791e-07,8.36940449397108e-07,1.50715377087872e-06,2.4326000845822e-07,-5.61010327693582e-07,1.04715160293683e-06,3.34967398027461e-06,-5.41163422219111e-07,2.06187425931501e-06,-8.59843127468683e-07,2.17352646003753e-06,3.32207599695758e-07,3.97351323157024e-06,-4.58922989118256e-06,1.17169162720678e-06,-7.11775956083471e-07,2.66966927824324e-06,-2.38362931187216e-06,1.20580355907149e-06,2.35458670713135e-08,2.2281109708172e-06,-2.42256599401312e-07,4.96073710409394e-06,-4.5141665072543e-07
1.45592348686911e-06,-9.6579515321625e-07,1.94588826962841e-07,-2.92163950863137e-07,1.05657233127507e-06,-3.21434262345274e-07,-7.61337473897344e-07,-1.33762660667203e-06,-4.29658633613002e-06,9.83271667988495e-09,-4.50110969402911e-06,-3.69885543935658e-07,-7.76955501294158e-07,-8.70334362990629e-07,1.78561400131043e-08,-8.09324883270641e-07,1.86356043154375e-06,-8.23764873059172e-11,3.43749945845309e-07,-4.37030104914676e-07,2.99255644968231e-06,-1.12910906459934e-06,1.07649842691172e-06,-4.86113443191855e-07,2.51652151041612e-06,-1.10580111543176e-06,2.13315908484122e-06,-1.05855861653663e-06,1.05536006844594e-06,1.41332283867167e-07,7.76979546410708e-07,2.22913483706351e-07,8.94147717600999e-07,9.42209025519785e-07,1.30684979043094e-07,-5.80371343167817e-07,2.95210606035602e-06,-5.97919968403944e-07,-5.95538688496883e-07,1.70829104801276e-06,-5.15853019934846e-07,3.28625806673715e-07,7.65246598487789e-07,-1.18114285124408e-06,1.13631746477273e-07,-2.17969585945899e-07,-7.42380430639674e-08,-1.76138066641393e-06,1.89240125867532e-07,8.29762762046656e-07,1.4575988653009e-06,2.55528112322929e-07,-6.04115306433424e-07,1.06188303317409e-06,3.31077283504652e-06,-5.27572262499694e-07,2.01043040150927e-06,-8.56236900853993e-07,2.13436145542719e-06,3.41230332134922e-07,3.97272122012499e-06,-4.5943012825128e-06,1.15890931384779e-06,-7.12365112068247e-07,2.69200303076523e-06,-2.42229508682312e-06,1.20431116284543e-06,1.99977365224152e-08,2.22806310553806e-06,-2.53148483493691e-07,4.92150471907424e-06,-4.51660707612903e-07
1.43402903990922e-06,-9.53921657479116e-07,1.614672669847e-07,-2.86042790530553e-07,1.05131842381325e-06,-3.28628899854111e-07,-7.82090595360069e-07,-1.34001932567907e-06,-4.30529124664836e-06,2.09240107786085e-08,-4.5079393696773e-06,-3.71486875555539e-07,-7.85309671210713e-07,-8.60064135785788e-07,-1.64944624654906e-08,-8.14401701422138e-07,1.88834846028665e-06,3.11471544963234e-10,3.42291103693817e-07,-4.37567018156435e-07,2.98852101988258e-06,-1.13161668016485e-06,1.0673915105296e-06,-4.72856553627542e-07,2.5249176590658e-06,-1.11207343285055e-06,2.15390006757887e-06,-1.07017470555968e-06,1.0375960771715e-06,1.39869382453555e-07,7.6007435310523e-07,2.22789846748118e-07,8.9942764984009e-07,9.19513998188384e-07,1.41109206246012e-07,-6.00040659448865e-07,2.95147106465188e-06,-5.98843823695266e-07,-6.20492915065966e-07,1.7002254994869e-06,-5.01597484319287e-07,3.26747193629068e-07,7.40167320528599e-07,-1.16756848051626e-06,6.05917055847289e-08,-1.90989891809476e-07,-7.5128765126632e-08,-1.75379864838841e-06,1.8692924490732e-07,8.23231624426519e-07,1.40405219914854e-06,2.69189622650703e-07,-6.48385489845442e-07,1.07712572881717e-06,3.2690171670341e-06,-5.1302922257769e-07,1.95553409752335e-06,-8.51110016659646e-07,2.09217341561827e-06,3.50052752282485e-07,3.97193405882249e-06,-4.60126397283075e-06,1.14079993284357e-06,-7.1105997977867e-07,2.70936432725835e-06,-2.46032515684132e-06,1.19932699177125e-06,1.69218455655895e-08,2.22188025752567e-06,-2.62935478082989e-07,4.87267530895813e-06,-4.51311072175077e-07
1.40948758681817e-06,-9.40462604732627e-07,1.26273824036084e-07,-2.78678473971152e-07,1.04254672277127e-06,-3.3579896675449e-07,-8.0449280035276e-07,-1.34152043749493e-06,-4.31749655818719e-06,3.36030933544499e-08,-4.51757561512684e-06,-3.73484410511356e-07,-7.97507349349922e-07,-8.47808694023351e-07,-5.58286605751799e-08,-8.17373082971815e-07,1.90673552131845e-06,9.33518594011182e-10,3.38707376630262e-07,-4.37637704686473e-07,2.97935319269199e-06,-1.13248154371651e-06,1.05190641746493e-06,-4.57204565234764e-07,2.52703381859424e-06,-1.11614289479626e-06,2.16888492479526e-06,-1.07918191375243e-06,1.01561553119273e-06,1.38436557967166e-07,7.40386087943552e-07,2.23536563216188e-07,9.02000354679119e-07,8.9793106591194e-07,1.50529806256345e-07,-6.18875109581743e-07,2.94939659678195e-06,-5.99229054143583e-07,-6.49308513023688e-07,1.69249929467345e-06,-4.87443877674545e-07,3.25038615495385e-07,7.13201004255712e-07,-1.15247089320649e-06,6.80498998101133e-09,-1.63472014895606e-07,-7.65935992683851e-08,-1.74482587509072e-06,1.83021999442888e-07,8.17373261024355e-07,1.34665472658767e-06,2.84181009420757e-07,-6.93789538043622e-07,1.09289775914649e-06,3.22446458656374e-06,-4.97574108625007e-07,1.89723324117079e-06,-8.44484079482964e-07,2.04693165776334e-06,3.58704809228942e-07,3.97085139846037e-06,-4.60971858660181e-06,1.1174849312547e-06,-7.07883071631413e-07,2.7217527734866e-06,-2.49765391560983e-06,1.19085847435918e-06,1.43226132673297e-08,2.20952210689558e-06,-2.7155868832179e-07,4.8142447803896e-06,-4.50317696017337e-07
1.38239439058312e-06,-9.25446905547211e-07,8.91418864244611e-08,-2.7007585833796e-07,1.03033041955103e-06,-3.42917599390097e-07,-8.28383998710392e-07,-1.34211011029981e-06,-4.33309230496683e-06,4.78858342698377e-08,-4.52980427850286e-06,-3.75808814311448e-07,-8.13502270495867e-07,-8.33553695665378e-07,-1.00005105930876e-07,-8.18233716757518e-07,1.91879469324535e-06,1.81789312492056e-09,3.33021220692239e-07,-4.37233086841543e-07,2.96511934796937e-06,-1.13170571524717e-06,1.03009510440503e-06,-4.39162644244923e-07,2.52292828668245e-06,-1.11801023209236e-06,2.17814944164673e-06,-1.08558329162541e-06,9.89560178659257e-07,1.37064564017115e-07,7.17981418336016e-07,2.25145396487991e-07,9.01888929120138e-07,8.774851808783e-07,1.58948310501106e-07,-6.36844672319709e-07,2.94586629269979e-06,-5.99066089416757e-07,-6.81877369263405e-07,1.68516772009502e-06,-4.73464114110491e-07,3.23567505246977e-07,6.84447652402977e-07,-1.13587685503194e-06,-4.77211533854887e-08,-1.35372250275035e-07,-7.86698505986095e-08,-1.73447008130542e-06,1.77654125125118e-07,8.1221248132368e-07,1.28556536456116e-06,3.00433779440205e-07,-7.40287071634062e-07,1.10921337905445e-06,3.1771880137672e-06,-4.81251189199123e-07,1.8355956122108e-06,-8.36386384478605e-07,1.99862440784662e-06,3.67214403570431e-07,3.96917748357681e-06,-4.61926341117553e-06,1.08911367624007e-06,-7.02864668477728e-07,2.72919289409119e-06,-2.53421532814444e-06,1.17893364118139e-06,1.2202279163117e-08,2.19098454304778e-06,-2.78962931575608e-07,4.74626717896913e-06,-4.48633621789233e-07
1.3528575606378e-06,-9.0890947967884e-07,5.02169336240429e-08,-2.60245274604843e-07,1.01476108858228e-06,-3.4995797584228e-07,-8.53595844106769e-07,-1.34177072414214e-06,-4.35194446071745e-06,6.37817903619833e-08,-4.54438754894794e-06,-3.78388555680592e-07,-8.33223737812817e-07,-8.17293734657551e-07,-1.48855902321954e-07,-8.16986487468894e-07,1.92464656372334e-06,2.99920489236455e-09,3.25266716838645e-07,-4.36345239415179e-07,2.94590990438678e-06,-1.1292967266522e-06,1.00204321565182e-06,-4.18745432029916e-07,2.51268770673375e-06,-1.11768340184978e-06,2.18175520365042e-06,-1.08939076762062e-06,9.59597856300926e-07,1.35783855307647e-07,6.92944067436078e-07,2.27603937004242e-07,8.99132414382482e-07,8.58197858354917e-07,1.66374365669817e-07,-6.53921926869655e-07,2.94087309349751e-06,-5.98345561704149e-07,-7.18058073858627e-07,1.6782831772534e-06,-4.59720505792966e-07,3.22398912016483e-07,6.54018071882744e-07,-1.11781866758537e-06,-1.02970790769867e-07,-1.06647522170429e-07,-8.13848509431831e-08,-1.72274278821271e-06,1.70976677908996e-07,8.07772534275662e-07,1.22096069719411e-06,3.1787466847779e-07,-7.87828350617962e-07,1.12608266939094e-06,3.12727560543595e-06,-4.64109077285337e-07,1.77070889712519e-06,-8.26849908525847e-07,1.94725936843531e-06,3.75607012743897e-07,3.96662257533808e-06,-4.62949620476577e-06,1.05586306102715e-06,-6.96042713342225e-07,2.73173423732838e-06,-2.56994293335321e-06,1.16360134130232e-06,1.05608612686906e-08,2.16630028823583e-06,-2.85097016078734e-07,4.66885531745892e-06,-4.46215380343444e-07
1.32099763422983e-06,-8.90891278233647e-07,9.6557929472171e-09,-2.49202541192056e-07,9.95948446904615e-07,-3.56893438394644e-07,-8.79952621154979e-07,-1.34048697501428e-06,-4.37389526448188e-06,8.129408025053e-08,-4.56106515493921e-06,-3.81150187684269e-07,-8.56576479723305e-07,-7.99032409952446e-07,-2.02187065761815e-07,-8.13642533192645e-07,1.9244596244195e-06,4.51231151714051e-09,3.15489608534705e-07,-4.34967512774491e-07,2.92183947890772e-06,-1.12526774159151e-06,9.67870389660546e-07,-3.95977272462828e-07,2.49642722990386e-06,-1.11517767900282e-06,2.1797896686533e-06,-1.09062508298108e-06,9.25922067267303e-07,1.34624429238543e-07,6.65374678444308e-07,2.3089559366846e-07,8.93785975518777e-07,8.40087033589065e-07,1.72825755981624e-07,-6.70082177092491e-07,2.93441928180944e-06,-5.97058116893014e-07,-7.57676268011745e-07,1.67189483996934e-06,-4.46264641656556e-07,3.21594840978811e-07,6.22033739563511e-07,-1.09833411685865e-06,-1.58918507846825e-07,-7.7255966963218e-08,-8.47551687266948e-08,-1.70965924968049e-06,1.63155552639012e-07,8.04074962220114e-07,1.15303457890784e-06,3.36425856991939e-07,-8.36354027754533e-07,1.14351121024092e-06,3.07483057962152e-06,-4.4620058168511e-07,1.70268056543323e-06,-8.15913267370704e-07,1.89286414834142e-06,3.8390534694427e-07,3.9629043061571e-06,-4.64001598154782e-06,1.01793693876402e-06,-6.87462666339476e-07,2.72945129679623e-06,-2.60476980214019e-06,1.14493132439316e-06,9.39612456031207e-09,2.13553929233751e-06,-2.8991400995285e-07,4.58218100203458e-06,-4.43023370745325e-07
1.28694710036115e-06,-8.71439279420353e-07,-3.23741699250116e-08,-2.36968950191787e-07,9.74020001294867e-07,-3.63697616593497e-07,-9.0727217421021e-07,-1.33824597180222e-06,-4.39876367409725e-06,1.00419289228884e-07,-4.57955568200681e-06,-3.84018640157869e-07,-8.8344066144843e-07,-7.78782347325876e-07,-2.59779138563626e-07,-8.08221264631193e-07,1.9184502771343e-06,6.39207476478488e-09,3.03747267386783e-07,-4.3309465589712e-07,2.89304689527028e-06,-1.11963769726506e-06,9.27730339975229e-07,-3.70892391174869e-07,2.47429050581262e-06,-1.11051572539484e-06,2.17236609641489e-06,-1.08931569900278e-06,8.88751347433878e-07,1.33615666013277e-07,6.35390561473822e-07,2.34999609105824e-07,8.85920984325054e-07,8.23166932921397e-07,1.78328360248843e-07,-6.85303550558325e-07,2.92651642990958e-06,-5.9519420726549e-07,-8.00525239599039e-07,1.66604833056724e-06,-4.33136363307601e-07,3.21213620896879e-07,5.88626593509875e-07,-1.07746639465995e-06,-2.1552868209158e-07,-4.7157523630569e-08,-8.87858885857552e-08,-1.69523838595681e-06,1.54370869714713e-07,8.01139456536491e-07,1.08199763469095e-06,3.56005208524189e-07,-8.85794980260485e-07,1.16149978855955e-06,3.019970937027e-06,-4.27582527847491e-07,1.63163760187771e-06,-8.03620640375825e-07,1.83548654755164e-06,3.92129039973852e-07,3.95774896123534e-06,-4.65042476772442e-06,9.75565385449782e-07,-6.77177322374282e-07,2.72244326695954e-06,-2.63862847530273e-06,1.12301418405872e-06,8.70356037044003e-09,2.09880889199633e-06,-2.93371500930549e-07,4.48647484491377e-06,-4.39022220948221e-07
1.25084986780997e-06,-8.50606456235635e-07,-7.5695922951245e-08,-2.23571225389377e-07,9.49120580204336e-07,-3.70344550036123e-07,-9.35366874158119e-07,-1.33503732547642e-06,-4.42634595097517e-06,1.21147406416825e-07,-4.59955800560169e-06,-3.86917523616748e-07,-9.13672057132605e-07,-7.56565173140417e-07,-3.21387958628125e-07,-8.00750345083724e-07,1.90688243121031e-06,8.67310937139556e-09,2.90108583143174e-07,-4.30722937668595e-07,2.8596950320384e-06,-1.1124314245637e-06,8.81810697505824e-07,-3.43535022030249e-07,2.44644949286688e-06,-1.10372763443361e-06,2.15962332826253e-06,-1.0855006772255e-06,8.48328414292509e-07,1.32786167714245e-07,6.03125319367553e-07,2.39891100409781e-07,8.75624999640147e-07,8.074479626131e-07,1.82916042775026e-07,-6.99567073569904e-07,2.91718525744188e-06,-5.92743867962402e-07,-8.46366766401555e-07,1.66078541627073e-06,-4.20362844082389e-07,3.21309293748773e-07,5.53938745642683e-07,-1.05526399262836e-06,-2.72754831836012e-07,-1.63145318806918e-08,-9.34699717680082e-08,-1.67950270476109e-06,1.44816226500077e-07,7.98983716645202e-07,1.00807665471401e-06,3.7652653054028e-07,-9.3607222340002e-07,1.18004414118138e-06,2.96282907758909e-06,-4.08315548392235e-07,1.55772609468859e-06,-7.90021664617109e-07,1.77519469046027e-06,4.00294378557305e-07,3.95089268069321e-06,-4.66032931944562e-06,9.29003792836268e-07,-6.65246593592879e-07,2.71083364020459e-06,-2.67145089899697e-06,1.09796115807992e-06,8.47637708852815e-09,2.05625372830032e-06,-2.95431846988406e-07,4.38202565378749e-06,-4.34181127873717e-07
1.21286067750646e-06,-8.2845171434798e-07,-1.20123699286785e-07,-2.09041451473288e-07,9.21411747519453e-07,-3.76808810787156e-07,-9.64044619750332e-07,-1.33085322982151e-06,-4.45641638020298e-06,1.43461796114604e-07,-4.62075283791986e-06,-3.89769443535813e-07,-9.47102388011412e-07,-7.32411439654913e-07,-3.86745585192935e-07,-7.91265630530834e-07,1.89006667551345e-06,1.13895264430649e-08,2.74653774342937e-07,-4.2785026450151e-07,2.82197050075651e-06,-1.10367974255327e-06,8.30332602204682e-07,-3.13959476057131e-07,2.41310408014546e-06,-1.09485094931374e-06,2.14172541053049e-06,-1.0792265339478e-06,8.0491909414335e-07,1.32163596881328e-07,5.68728349243834e-07,2.45541127070093e-07,8.63001639761265e-07,7.92936618623661e-07,1.86630478744419e-07,-7.12856724319447e-07,2.90645539896551e-06,-5.89696481075256e-07,-8.94932206818595e-07,1.65614372794636e-06,-4.07957776118119e-07,3.21931022206292e-07,5.18122113334287e-07,-1.03178056938847e-06,-3.30539053768564e-07,1.53076657475715e-08,-9.87877073260564e-08,-1.66247820948793e-06,1.34697812163606e-07,7.97623313538776e-07,9.31513880232315e-07,3.97899857791231e-07,-9.87096909241114e-07,1.19913473445126e-06,2.90355131092932e-06,-3.88463843714425e-07,1.48111067867682e-06,-7.75171298459549e-07,1.71207700068321e-06,4.08414072871658e-07,3.94208257393207e-06,-4.66934279427233e-06,8.78531792531391e-07,-6.5173725851005e-07,2.69476964682639e-06,-2.70316837107692e-06,1.06990378194947e-06,8.70550256251412e-09,2.00805541835228e-06,-2.96062417441222e-07,4.26917939081911e-06,-4.28474175798022e-07
1.17314445938704e-06,-8.05039798328905e-07,-1.6546398512791e-07,-1.93416973941064e-07,8.91071097056775e-07,-3.83065625634841e-07,-9.93109869178329e-07,-1.32568853279975e-06,-4.4887281292221e-06,1.6733920486059e-07,-4.64280438771555e-06,-3.92496323045259e-07,-9.83539830737516e-07,-7.06360501781553e-07,-4.55561381010413e-07,-7.79811069408703e-07,1.86835901753748e-06,1.45746726871998e-08,2.57474116727269e-07,-4.24476292274262e-07,2.78008314702252e-06,-1.09341952308885e-06,7.73550036284211e-07,-2.82230148620101e-07,2.37448151536811e-06,-1.08393065270879e-06,2.11886105770222e-06,-1.07054807079035e-06,7.58811027628388e-07,1.31774515211089e-07,5.32364218691428e-07,2.51916787389091e-07,8.48170342441489e-07,7.79635420773924e-07,1.89520916529892e-07,-7.251594665812e-07,2.89436508426471e-06,-5.86040532700758e-07,-9.45923836954355e-07,1.65215650427728e-06,-3.95920671697946e-07,3.23122515932524e-07,4.81337969269675e-07,-1.00707479188912e-06,-3.88811562351777e-07,4.7740128620413e-08,-1.04706262673622e-07,-1.64419429397999e-06,1.24233387136041e-07,7.9707155888913e-07,8.52566178869693e-07,4.2003175810867e-07,-1.03877041307484e-06,1.2187565821734e-06,2.84229726115468e-06,-3.68094913745181e-07,1.40197383054204e-06,-7.59129652338975e-07,1.64624201155047e-06,4.16497071175835e-07,3.9310777367821e-06,-4.67708637022615e-06,8.24452013689372e-07,-6.36722679201239e-07,2.67442153863099e-06,-2.73371150942558e-06,1.03899339358547e-06,9.3795985994995e-09,1.95443197757871e-06,-2.95235822895601e-07,4.14833769750571e-06,-4.21880631284655e-07
1.13187563503137e-06,-7.80441164317817e-07,-2.11516559197823e-07,-1.76740269311188e-07,8.5829143034657e-07,-3.8909099803181e-07,-1.02236469572281e-06,-1.31954079748726e-06,-4.52301424647853e-06,1.92749805109388e-07,-4.66536212973575e-06,-3.95019731691496e-07,-1.02276969793254e-06,-6.78460345453432e-07,-5.27523248679984e-07,-7.66438561913306e-07,1.84215919348681e-06,1.82608667002964e-08,2.38671587921906e-07,-4.20602530706115e-07,2.7342653708496e-06,-1.08169372172003e-06,7.11748896431609e-07,-2.48421461583998e-07,2.3308356363341e-06,-1.07101912548789e-06,2.09124295259893e-06,-1.05952818191315e-06,7.10312158835233e-07,1.31644223040889e-07,4.94211918183993e-07,2.58981343820702e-07,8.31266009249145e-07,7.67542874041742e-07,1.91643881033625e-07,-7.36465266469355e-07,2.88096073643349e-06,-5.81763369473192e-07,-9.99016430818201e-07,1.64885236478627e-06,-3.84236288199649e-07,3.24921483683707e-07,4.43756409743375e-07,-9.81210151580899e-07,-4.47490346193093e-07,8.10097460225812e-08,-1.11179340795891e-07,-1.62468362346063e-06,1.13651130917306e-07,7.97339381041218e-07,7.71504109140693e-07,4.428256602323e-07,-1.09098450904414e-06,1.23888910422204e-06,2.77923916872767e-06,-3.47279263026973e-07,1.3205150143747e-06,-7.41961783589975e-07,1.57781800778271e-06,4.24548421760008e-07,3.91765016335784e-06,-4.68319080780924e-06,7.67088677938034e-07,-6.20282487123146e-07,2.64998171777818e-06,-2.76301025021117e-06,1.00540048892546e-06,1.04850879250043e-08,1.89563699119237e-06,-2.92930131423077e-07,4.01995598607235e-06,-4.1438521197482e-07
1.08923736891209e-06,-7.54731817349149e-07,-2.58075577527337e-07,-1.5905878543003e-07,8.23279823539155e-07,-3.94861828793804e-07,-1.05160985944265e-06,-1.31241035156791e-06,-4.55898879936291e-06,2.19657275818756e-07,-4.68806267777165e-06,-3.97261217680376e-07,-1.06455529096187e-06,-6.48767368117028e-07,-6.02299016783883e-07,-7.51207778958978e-07,1.81190856159411e-06,2.24791345891475e-08,2.18358428237575e-07,-4.16232438410793e-07,2.68477126572522e-06,-1.06855137161982e-06,6.4524580694249e-07,-2.12617738285237e-07,2.28244590522404e-06,-1.05617607158816e-06,2.05910688131613e-06,-1.04623763673175e-06,6.59749017048683e-07,1.31796600396915e-07,4.54463992861832e-07,2.66694376755447e-07,8.12438532466804e-07,7.56653458177335e-07,1.9306282345374e-07,-7.46767095069254e-07,2.86629649316092e-06,-5.76850961542734e-07,-1.0538590773783e-06,1.64625511446427e-06,-3.72874188930227e-07,3.27359122689372e-07,4.05555741179454e-07,-9.54254755105838e-07,-5.06480956870312e-07,1.15138705807919e-07,-1.18146950759799e-07,-1.60398200169827e-06,1.03188364126333e-07,7.98435209896516e-07,6.88610875493185e-07,4.66182202938542e-07,-1.14362163608313e-06,1.25950602887813e-06,2.71456109322604e-06,-3.26090082033664e-07,1.23694967754911e-06,-7.23737453228577e-07,1.5069524956056e-06,4.32569184907891e-07,3.90158554989479e-06,-4.68729795225917e-06,7.06786035897904e-07,-6.02502237521067e-07,2.62166371401647e-06,-2.79099388218737e-06,9.69313929477782e-07,1.20061938809828e-08,1.83195853456028e-06,-2.89129067824152e-07,3.88454110209246e-06,-4.05978325915612e-07
1.04542077167929e-06,-7.27993111939377e-07,-3.0493069633312e-07,-1.40424751930301e-07,7.86256590020294e-07,-4.0035603409873e-07,-1.08064588608404e-06,-1.30430032458445e-06,-4.59634814944475e-06,2.48018919638879e-07,-4.71053175470815e-06,-3.99142640873853e-07,-1.10863892356491e-06,-6.17346112337954e-07,-6.79537970597387e-07,-7.34185941214029e-07,1.77808759365334e-06,2.72589484801708e-08,1.96656618299168e-07,-4.11371506869971e-07,2.63187557725826e-06,-1.05404753769413e-06,5.74386678324724e-07,-1.74913010096684e-07,2.22961624614586e-06,-1.0394684061258e-06,2.0227107010433e-06,-1.03075483614015e-06,6.07464801929057e-07,1.32253950667872e-07,4.13325556858782e-07,2.75011965862105e-07,7.91852203489313e-07,7.46957645368739e-07,1.93847723105667e-07,-7.56060919694208e-07,2.85043365581337e-06,-5.71287678463294e-07,-1.11007722537589e-06,1.64438358136387e-06,-3.61788452717235e-07,3.30459658633791e-07,3.66921784095067e-07,-9.26281088580149e-07,-5.65676444065975e-07,1.50144017257389e-07,-1.25535298170948e-07,-1.58212822478506e-06,9.30901525011995e-08,8.00364873447212e-07,6.04181175816209e-07,4.89999604377909e-07,-1.19655525592082e-06,1.28057534251109e-06,2.64845802025391e-06,-3.04602907693592e-07,1.15150809826745e-06,-7.04530843356371e-07,1.43381149984695e-06,4.40556396355792e-07,3.88268399613606e-06,-4.68906217841544e-06,6.43906649655881e-07,-5.83473032390812e-07,2.58970101769547e-06,-2.81759112629086e-06,9.3094000356574e-07,1.39249930557392e-08,1.76371784324779e-06,-2.83822192814601e-07,3.74264856590824e-06,-3.96656277971171e-07
1.00062405808875e-06,-7.0031151498594e-07,-3.51868226325091e-07,-1.20894961182075e-07,7.47454142860142e-07,-4.05552659196019e-07,-1.10927414511999e-06,-1.29521667234656e-06,-4.63477236286171e-06,2.77785815905243e-07,-4.73238625468957e-06,-4.0058650377514e-07,-1.1547431144888e-06,-5.84268954031619e-07,-7.58872522570242e-07,-7.15447558922733e-07,1.74121297782762e-06,3.2627972051377e-08,1.73697274664325e-07,-4.0602733145319e-07,2.57587248269308e-06,-1.03824322825843e-06,4.99545017365921e-07,-1.35410754102878e-07,2.17267368692289e-06,-1.02097010425612e-06,1.98233314008187e-06,-1.013165540395e-06,5.538172834863e-07,1.33036848401537e-07,3.71013192954728e-07,2.83886898087533e-07,7.69685002110739e-07,7.38441944642085e-07,1.94074646259843e-07,-7.64345686152498e-07,2.83344006966671e-06,-5.65056082943801e-07,-1.16727494510096e-06,1.64325148719527e-06,-3.50917543154295e-07,3.34239948352147e-07,3.28047094004043e-07,-8.97365754812102e-07,-6.24957446741715e-07,1.86037095742526e-07,-1.33256802312828e-07,-1.55916392179325e-06,8.36078021109378e-08,8.03131508947111e-07,5.18519943662743e-07,5.14174050200734e-07,-1.24965030644783e-06,1.30205929057973e-06,2.58113487461967e-06,-2.82895265493985e-07,1.0644340852581e-06,-6.84420233178884e-07,1.35857868730633e-06,4.48503082635495e-07,3.86076061714734e-06,-4.68815178742149e-06,5.78829525575495e-07,-5.63291112460911e-07,2.55434578083735e-06,-2.84273027275956e-06,8.90501343487583e-07,1.62214809854564e-08,1.69126773470709e-06,-2.77005059203264e-07,3.59487940305297e-06,-3.86421440143555e-07
9.55051660991844e-07,-6.71778330431081e-07,-3.98672312811885e-07,-1.00530520321514e-07,7.07115757815898e-07,-4.10431985982105e-07,-1.13729792023833e-06,-1.28516818792215e-06,-4.67392675395792e-06,3.08903008309923e-07,-4.75323639407515e-06,-4.01516277808529e-07,-1.20257194677683e-06,-5.49615747298799e-07,-8.39920018193312e-07,-6.95074133484584e-07,1.7018343444823e-06,3.861181745539e-08,1.49619965185438e-07,-4.00209667532887e-07,2.51707419350419e-06,-1.02120526187095e-06,4.21119996788091e-07,-9.42235618389352e-08,2.11196680733395e-06,-1.00076200874018e-06,1.93827243124379e-06,-9.93562566901142e-07,4.99176529831455e-07,1.34163993176171e-07,3.27753741157012e-07,2.9326890123363e-07,7.46127767123976e-07,7.31088970599686e-07,1.93825266421154e-07,-7.7162329430969e-07,2.81538943789766e-06,-5.58136745693588e-07,-1.2250373956685e-06,1.64286735047928e-06,-3.4018434542454e-07,3.38709153616661e-07,2.89130099910979e-07,-8.6758918327676e-07,-6.84192444460921e-07,2.22823411724702e-07,-1.41210246172918e-07,-1.53513338247611e-06,7.49972562771179e-08,8.06735491227222e-07,4.31940988350744e-07,5.38600098800542e-07,-1.30276375470255e-06,1.32391443397248e-06,2.51280544181558e-06,-2.61046294760147e-07,9.75983530734412e-07,-6.63487631362927e-07,1.28145431720407e-06,4.5639832779413e-07,3.83564608145911e-06,-4.68425036800611e-06,5.11948103114929e-07,-5.42057419249659e-07,2.51586739952611e-06,-2.86633938337471e-06,8.48235702057649e-07,1.88736510504335e-08,1.61499078551648e-06,-2.6867934232633e-07,3.44187657816808e-06,-3.75282383140439e-07
9.0891330286332e-07,-6.42489385466256e-07,-4.45126136002142e-07,-7.93965751661671e-08,6.65494237096528e-07,-4.14975631978894e-07,-1.16452346630075e-06,-1.27416649850477e-06,-4.71346355938446e-06,3.41309725948155e-07,-4.77268794607018e-06,-4.01856722390538e-07,-1.25181258968397e-06,-5.13473428205693e-07,-9.22284671771446e-07,-6.7315382198559e-07,1.66053063119771e-06,4.5233818361099e-08,1.24571947078539e-07,-3.93930469898537e-07,2.45580938579199e-06,-1.00300608731389e-06,3.39534296265877e-07,-5.14727393186828e-08,2.04786399824314e-06,-9.78931594279556e-07,1.89084478243696e-06,-9.72045456151721e-07,4.43922479195655e-07,1.35652071758755e-07,2.83782982153211e-07,3.03104901495102e-07,7.21383250558e-07,7.2487753295478e-07,1.93186350187269e-07,-7.77898569064334e-07,2.79636057282346e-06,-5.50508084255159e-07,-1.28293348558255e-06,1.64323442230581e-06,-3.29496375082218e-07,3.43868489981202e-07,2.50374162478665e-07,-8.37035312604107e-07,-7.43238167754233e-07,2.60502204113826e-07,-1.49281064232994e-07,-1.51008337263005e-06,6.75174055634851e-08,8.11174380040292e-07,3.44765537968186e-07,5.63171101671778e-07,-1.35574525242404e-06,1.34609176379205e-06,2.44369120128145e-06,-2.39136358171294e-07,8.86422821593383e-07,-6.41818363874367e-07,1.20265402269557e-06,4.6422738986778e-07,3.80718708862402e-06,-4.67705813079945e-06,4.43668108173764e-07,-5.19877128750611e-07,2.47455098911367e-06,-2.88834655820348e-06,8.04394594165086e-07,2.18575866447846e-08,1.53529727028632e-06,-2.58852941526332e-07,3.28432105303003e-06,-3.63253967038977e-07
8.62423027821513e-07,-6.12544678356962e-07,-4.91013124675345e-07,-5.75620070884135e-08,6.2285047757953e-07,-4.19166638026988e-07,-1.1907610464887e-06,-1.26222604733894e-06,-4.75302373749359e-06,3.74939636322919e-07,-4.79034454914047e-06,-4.01534194590626e-07,-1.30213697653736e-06,-4.75935580112808e-07,-1.00555962435502e-06,-6.49781066044157e-07,1.61790611210492e-06,5.25148232163108e-08,9.87073321121665e-08,-3.87203914090645e-07,2.39242146617006e-06,-9.8372355545719e-07,2.55231729869431e-07,-7.28783890306815e-09,1.98075153852258e-06,-9.55572686703197e-07,1.84038269141146e-06,-9.4872010497066e-07,3.88442376138121e-07,1.37515630681289e-07,2.39344223998182e-07,3.13339302869395e-07,6.95665059666245e-07,7.19782742826752e-07,1.92249211500376e-07,-7.83179227469266e-07,2.77643659060728e-06,-5.42146230316089e-07,-1.34051871281354e-06,1.64435065573546e-06,-3.18746158535904e-07,3.4971105172228e-07,2.11986555178188e-07,-8.05791244926389e-07,-8.01940163271949e-07,2.99066257574464e-07,-1.57341771257549e-07,-1.48406293843447e-06,6.14283227891023e-08,8.16442887991272e-07,2.57320691931723e-07,5.87779636472576e-07,-1.40843789347541e-06,1.36853687522687e-06,2.37402007672019e-06,-2.17246636696584e-07,7.96027118104478e-07,-6.19500617896514e-07,1.12240743099432e-06,4.71971864244472e-07,3.77524679012236e-06,-4.66629321220242e-06,3.7440528237276e-07,-4.96859158740691e-07,2.43069576418519e-06,-2.90868026471282e-06,7.59241811101598e-07,2.51475665489718e-08,1.45262286970998e-06,-2.4754004838771e-07,3.12292749462232e-06,-3.50357389202148e-07
8.15798198309747e-07,-5.82047988316354e-07,-5.36118175408034e-07,-3.50991042306957e-08,5.7945195181637e-07,-4.2298954324182e-07,-1.21582594315638e-06,-1.24936405998598e-06,-4.79223888529038e-06,4.09721128771409e-07,-4.80581007536923e-06,-4.00476947635026e-07,-1.35320362973378e-06,-4.37101963380182e-07,-1.08932911446244e-06,-6.25056186460957e-07,1.57458612434833e-06,6.04730098033997e-08,7.21861840954502e-08,-3.80046398731528e-07,2.32726668240611e-06,-9.63440642719448e-07,1.68674675620071e-07,3.81938759385571e-08,1.91103149824697e-06,-9.30785135482934e-07,1.78723311424873e-06,-9.23698367824734e-07,3.33128092724692e-07,1.39766961035651e-07,1.94686801625853e-07,3.23914286235228e-07,6.69196491322302e-07,7.15776132499365e-07,1.91109134440152e-07,-7.87475840310549e-07,2.75570405868324e-06,-5.33024932028609e-07,-1.39733816886748e-06,1.64620871072888e-06,-3.07811779922729e-07,3.56221712639484e-07,1.74177372595517e-07,-7.73946871429673e-07,-8.60133508919839e-07,3.38501743907117e-07,-1.65252533790683e-07,-1.45712320126281e-06,5.69894356517661e-08,8.22532870068774e-07,1.69937789788492e-07,6.12317950357996e-07,-1.46067906813261e-06,1.39119019782152e-06,2.30402510976022e-06,-1.95458711900799e-07,7.05078510791073e-07,-5.96624942223568e-07,1.04095663164401e-06,4.79609890452952e-07,3.73970514478769e-06,-4.65169293115826e-06,3.04583001072045e-07,-4.73115652038e-07,2.38461333688843e-06,-2.92726973163588e-06,7.13051816584976e-07,2.87161831883418e-08,1.36742615587309e-06,-2.34761177113719e-07,2.95843966163711e-06,-3.36620187594809e-07
