S1_D1_HbO,S1_D1_HbR,S1_D2_HbO,S1_D2_HbR,S1_D20_HbO,S1_D20_HbR,S2_D2_HbO,S2_D2_HbR,S2_D3_HbO,S2_D3_HbR,S2_D21_HbO,S2_D21_HbR,S3_D3_HbO,S3_D3_HbR,S3_D4_HbO,S3_D4_HbR,S3_D22_HbO,S3_D22_HbR,S4_D5_HbO,S4_D5_HbR,S4_D6_HbO,S4_D6_HbR,S4_D7_HbO,S4_D7_HbR,S4_D17_HbO,S4_D17_HbR,S4_D8_HbO,S4_D8_HbR,S4_D23_HbO,S4_D23_HbR,S5_D7_HbO,S5_D7_HbR,S5_D10_HbO,S5_D10_HbR,S5_D8_HbO,S5_D8_HbR,S5_D9_HbO,S5_D9_HbR,S5_D24_HbO,S5_D24_HbR,S6_D10_HbO,S6_D10_HbR,S6_D11_HbO,S6_D11_HbR,S6_D12_HbO,S6_D12_HbR,S6_D9_HbO,S6_D9_HbR,S6_D25_HbO,S6_D25_HbR,S7_D11_HbO,S7_D11_HbR,S7_D12_HbO,S7_D12_HbR,S7_D13_HbO,S7_D13_HbR,S7_D14_HbO,S7_D14_HbR,S7_D18_HbO,S7_D18_HbR,S7_D26_HbO,S7_D26_HbR,S8_D15_HbO,S8_D15_HbR,S8_D16_HbO,S8_D16_HbR,S8_D19_HbO,S8_D19_HbR,S8_D9_HbO,S8_D9_HbR,S8_D27_HbO,S8_D27_HbR
-2.69756227083726e-06,-1.26223337854568e-06,-1.31944992374907e-06,-3.93652951797102e-07,-5.35836790414196e-06,-8.75603852347103e-07,-1.3726883610415e-06,-1.99272299957275e-07,2.09931982757301e-08,2.94821106173381e-07,5.354875081598e-06,-1.70726594575196e-08,-1.27293552936333e-06,-4.15174429439625e-07,-2.03353487263751e-06,-1.80938441225831e-06,4.5525329029511e-06,-8.00589629893434e-07,-1.88833643644824e-06,9.2705854198463e-07,-3.45720682965031e-06,-2.43032263246882e-07,-5.3277351019348e-06,1.50260510606852e-06,-5.60640917346211e-06,1.84390607580091e-06,-4.81023904936466e-06,4.19462373484243e-06,-1.37955431487192e-06,-1.21675973617295e-06,-4.20287293511202e-06,2.24597168690895e-06,3.97494093420006e-07,-4.85711191841351e-07,-1.6602780190949e-06,-1.35039812169741e-07,2.27140973762551e-06,1.32930908359427e-07,2.70285389145673e-06,1.06702479675048e-06,1.63498233020158e-06,-6.8660246360414e-07,8.11348938454701e-07,-4.6127719978641e-07,3.9424036544112e-06,-3.16695349892497e-06,1.51100588069168e-06,-9.05821343712453e-07,3.4313340565086e-06,-3.95229080412046e-06,2.75249645146645e-06,-2.43135307926193e-06,1.90231186088148e-06,-2.45666919586849e-08,1.42930970190456e-06,5.67011719367052e-07,-6.35830183965136e-09,8.2089138799758e-07,2.65542214089183e-06,5.52267675806304e-07,3.98879390589612e-05,-0.000103324919321238,9.615031529586e-07,7.06665155156582e-07,1.22416003075849e-06,-4.00626372208132e-07,-1.35233801818052e-07,-5.90196507308663e-08,4.47218291570001e-06,-4.21271222192536e-06,1.46766008956576e-06,-1.35191115621685e-06
-2.74271552834737e-06,-1.27022157813304e-06,-1.32286592253998e-06,-3.78156751154407e-07,-5.39759664532259e-06,-8.65702499846705e-07,-1.3617043023582e-06,-1.8057395989427e-07,-1.23565486163034e-08,2.89717915334511e-07,5.36016694920836e-06,-2.46258223499889e-08,-1.33027372229207e-06,-4.33007192620734e-07,-1.93891217475478e-06,-1.76777269124648e-06,4.53849619661078e-06,-7.87678708257522e-07,-1.86935473291152e-06,9.26018804755312e-07,-3.46315787119605e-06,-2.66778224338989e-07,-5.42146342599527e-06,1.59781994442758e-06,-5.65823389044522e-06,1.88643504463659e-06,-4.86165328310042e-06,4.36408156776325e-06,-1.46399792656171e-06,-1.22941855635009e-06,-4.16465673864059e-06,2.16210368898586e-06,3.88597053025623e-07,-4.74356864470245e-07,-1.61611140052115e-06,-9.64025177740711e-08,2.30275852342e-06,1.42725827197749e-07,2.76902408153932e-06,1.091302545412e-06,1.69489167767722e-06,-5.96037153471304e-07,7.61268518721514e-07,-4.08767520994741e-07,4.11129919445664e-06,-3.1934077858733e-06,1.53173396756546e-06,-9.22386047181542e-07,3.34472271784166e-06,-4.02984611368562e-06,2.71140945846164e-06,-2.38968207589165e-06,1.93889927519718e-06,-6.086811485173e-09,1.44588469745372e-06,6.14215889985293e-07,1.84658176525346e-08,8.85255379679821e-07,2.70110907915037e-06,5.85074577252687e-07,4.03468558526855e-05,-0.000104912230220285,9.61355866360799e-07,7.32607349567499e-07,1.16596308581281e-06,-4.12844962795341e-07,-1.60731770816126e-07,-7.13138481987724e-08,4.51599642306357e-06,-4.25213753664823e-06,1.54552171325985e-06,-1.44465643016515e-06
-2.78421446608527e-06,-1.27828960590196e-06,-1.32401075754006e-06,-3.62417851066739e-07,-5.43364249782626e-06,-8.55563888310105e-07,-1.34646605979128e-06,-1.61318626457355e-07,-4.37405302531819e-08,2.84119660607381e-07,5.36644858905737e-06,-3.2637205773688e-08,-1.38501813503432e-06,-4.50489394097433e-07,-1.83628610705412e-06,-1.72299067813074e-06,4.52256374647495e-06,-7.74266512407268e-07,-1.84647474724935e-06,9.22648407171929e-07,-3.46454691750847e-06,-2.91174182288179e-07,-5.50612410574593e-06,1.68956603429203e-06,-5.70786109383627e-06,1.93044164409451e-06,-4.89805772064455e-06,4.5207107770022e-06,-1.54559846890288e-06,-1.2426450107704e-06,-4.11777503584387e-06,2.07141399108549e-06,3.81057348610947e-07,-4.62273952754164e-07,-1.56820101860824e-06,-5.68060385906996e-08,2.33370979480461e-06,1.52428786725187e-07,2.84008214426727e-06,1.11445991898677e-06,1.75709500350652e-06,-5.05436120503087e-07,7.15575575736591e-07,-3.57752156118661e-07,4.28806143145575e-06,-3.2243139047408e-06,1.55323769488895e-06,-9.38324580150054e-07,3.25683512734737e-06,-4.1063581735245e-06,2.67493220388116e-06,-2.34741345159894e-06,1.97661430129404e-06,1.29033515266458e-08,1.46384202638813e-06,6.60785880961107e-07,4.8478899168002e-08,9.483611025711e-07,2.7501288110746e-06,6.17569710874459e-07,4.07871503231287e-05,-0.000106448308741998,9.64298858671113e-07,7.58625472216438e-07,1.10935459100883e-06,-4.25082076719984e-07,-1.83802152446035e-07,-8.34418991392784e-08,4.56121098844774e-06,-4.28730442766148e-06,1.62983831162264e-06,-1.53728736949891e-06
-2.82178276947045e-06,-1.28643544352171e-06,-1.32279409809108e-06,-3.46492675593396e-07,-5.46623984101189e-06,-8.45181478746686e-07,-1.3268832696145e-06,-1.41578202312132e-07,-7.2941431060703e-08,2.77980868757529e-07,5.3738447010219e-06,-4.10989554759644e-08,-1.43690091111803e-06,-4.67601299386024e-07,-1.72571502899899e-06,-1.6751187979042e-06,4.50475343693255e-06,-7.60362917751277e-07,-1.81966545978679e-06,9.16959173761519e-07,-3.46125344705745e-06,-3.16150255818975e-07,-5.58124510600017e-06,1.77755172534444e-06,-5.75508705406394e-06,1.97584712474086e-06,-4.91898640267986e-06,4.66376819596969e-06,-1.62396495657376e-06,-1.25636903795388e-06,-4.06198930971929e-06,1.97395027962802e-06,3.7508400732557e-07,-4.49490330177527e-07,-1.51644759822897e-06,-1.63650715496559e-08,2.36432928901854e-06,1.61962386407991e-07,2.91623377368511e-06,1.13641212359526e-06,1.82163065691143e-06,-4.15006850292106e-07,6.74521836147621e-07,-3.08345120482555e-07,4.47189788557112e-06,-3.25927359903335e-06,1.57563893449552e-06,-9.53585285683259e-07,3.16811195339304e-06,-4.18153675288781e-06,2.64320482325373e-06,-2.30468691090567e-06,2.01529809628688e-06,3.23818726416598e-08,1.48312247086776e-06,7.06608070158801e-07,8.36376557337461e-08,1.01005415448617e-06,2.80240951885184e-06,6.49677658539574e-07,4.12066016957551e-05,-0.000107925475556322,9.7057622220697e-07,7.8465191606572e-07,1.05468298470691e-06,-4.3727534865388e-07,-2.04214021462728e-07,-9.53871551781099e-08,4.60791379037036e-06,-4.31831268933107e-06,1.72090173633369e-06,-1.62952340053167e-06
-2.85515838752905e-06,-1.29465296092967e-06,-1.3191310750677e-06,-3.30437924786036e-07,-5.49512831444832e-06,-8.3455040482075e-07,-1.30288027466144e-06,-1.21427735257419e-07,-9.97501402383763e-08,2.71256582498184e-07,5.38248729230513e-06,-5.00040384141207e-08,-1.48566291161886e-06,-4.84324203696e-07,-1.6072854226955e-06,-1.62424914570983e-06,4.48510958617687e-06,-7.45976882759076e-07,-1.78890761583092e-06,9.08969487883543e-07,-3.45317304986785e-06,-3.41633582367078e-07,-5.64639333212764e-06,1.86149807743624e-06,-5.79972219413847e-06,2.02256977421668e-06,-4.92407719227425e-06,4.79260458350658e-06,-1.69872237344371e-06,-1.27051786471385e-06,-3.99709812258448e-06,1.86979600509248e-06,3.70871524264031e-07,-4.36036808054692e-07,-1.46077429178155e-06,2.47996037142394e-08,2.39467523569346e-06,1.71248607086311e-07,2.99765084595748e-06,1.15707725919384e-06,1.88851709596063e-06,-3.24955241001933e-07,6.3833596211848e-07,-2.60652612357225e-07,4.66194697653891e-06,-3.29783491802085e-06,1.59904857897267e-06,-9.68118943888067e-07,3.07898535083328e-06,-4.25509219353458e-06,2.61633364641881e-06,-2.26163553080777e-06,2.05478099906109e-06,5.2324600561244e-08,1.50365663344681e-06,7.51569934094453e-07,1.23870133110237e-07,1.07018622326941e-06,2.8578536907217e-06,6.81322758080693e-07,4.16030336845069e-05,-0.000109336144008484,9.80412569828454e-07,8.10618712784647e-07,1.00228560976067e-06,-4.49362050581057e-07,-2.21751213939004e-07,-1.07134033583728e-07,4.65616852001477e-06,-4.34526916188838e-06,1.81896740994561e-06,-1.72108189211606e-06
-2.88409545483726e-06,-1.30293184317953e-06,-1.31294260525978e-06,-3.14310170569505e-07,-5.52005552103957e-06,-8.23667582955941e-07,-1.27439710626519e-06,-1.00945003045822e-07,-1.23967494687721e-07,2.63902711097215e-07,5.39251272544155e-06,-5.93462498593602e-08,-1.53105520319995e-06,-5.00640506295019e-07,-1.48111223918242e-06,-1.57048513183249e-06,4.46370189961394e-06,-7.31116314982786e-07,-1.75419382216508e-06,8.98703950778968e-07,-3.44021851687098e-06,-3.67548631657617e-07,-5.7011771248555e-06,1.94113966076076e-06,-5.84159249752867e-06,2.07052550277654e-06,-4.91307709003072e-06,4.90667107696312e-06,-1.76951363210521e-06,-1.28501649796384e-06,-3.92293965370212e-06,1.75907106568591e-06,3.68598380208047e-07,-4.21947064984221e-07,-1.40112731116753e-06,6.65611876727094e-08,2.42479746603563e-06,1.80209363194208e-07,3.08446897750148e-06,1.17637673499054e-06,1.95775208336264e-06,-2.35484696490493e-07,6.07221675692249e-07,-2.14772230055421e-07,4.85728358300195e-06,-3.33949649760754e-06,1.62356521726271e-06,-9.8187906449976e-07,2.98987547493578e-06,-4.32673670861407e-06,2.59439047770929e-06,-2.21838487712877e-06,2.09488344332797e-06,7.27052967300508e-08,1.52536528175875e-06,7.9556058391921e-07,1.69075759652489e-07,1.12861587691932e-06,2.91633801149049e-06,7.12429512576111e-07,4.19743211011142e-05,-0.000110672855112506,9.94010964976225e-07,8.36457724955966e-07,9.5248627053656e-07,-4.61279680373345e-07,-2.36213936017021e-07,-1.18668145537414e-07,4.70601370903229e-06,-4.36828685033419e-06,1.92425043346274e-06,-1.81167973734268e-06
-2.90836622425266e-06,-1.31125754947146e-06,-1.30415579027933e-06,-2.98165464129729e-07,-5.54077987625016e-06,-8.12531806433646e-07,-1.24139047768548e-06,-8.0210083115993e-08,-1.45406049138758e-07,2.5587637870741e-07,5.40405850467053e-06,-6.91201976648758e-08,-1.5728405552963e-06,-5.16533790736953e-07,-1.34733919097813e-06,-1.51394106784698e-06,4.4406240532486e-06,-7.15787970563893e-07,-1.71552859824747e-06,8.86192974675139e-07,-3.42232088209234e-06,-3.93817528951197e-07,-5.74524860546486e-06,2.01622531258626e-06,-5.8805407991711e-06,2.11962841633419e-06,-4.88584660709928e-06,5.00552470785665e-06,-1.83600144401486e-06,-1.29978824482457e-06,-3.83939393436793e-06,1.64193215251734e-06,3.68425661021811e-07,-4.07257567386346e-07,-1.33747648451347e-06,1.08787009148193e-07,2.4547365792483e-06,1.88767057011405e-07,3.17678523045431e-06,1.19423567445381e-06,2.02931199814353e-06,-1.46795246717137e-07,5.81355990913729e-07,-1.70792295968493e-07,5.05692520425933e-06,-3.3837124944085e-06,1.64927386759569e-06,-9.94822162661845e-07,2.90118703202071e-06,-4.39618568131529e-06,2.577412007238e-06,-2.17505212853354e-06,2.13541692133446e-06,9.34957712519282e-08,1.54815973281096e-06,8.38471316917446e-07,2.19125525040553e-07,1.18520932106536e-06,2.97771338760513e-06,7.42923016558481e-07,4.23183954444034e-05,-0.000111928311071687,1.01155096691903e-06,8.62100821212134e-07,9.05592841388158e-07,-4.72966556404426e-07,-2.47420297799522e-07,-1.29976414348311e-07,4.75746122288922e-06,-4.38748405493234e-06,2.03692186623273e-06,-1.90103494672362e-06
-2.9277629953092e-06,-1.31961130424604e-06,-1.29270439148367e-06,-2.8205895745777e-07,-5.55707357359059e-06,-8.01143822591222e-07,-1.20383478039814e-06,-5.93049101917342e-08,-1.63891855127971e-07,2.4713626551935e-07,5.41725984380706e-06,-7.93212652541118e-08,-1.61079493756739e-06,-5.31988909455532e-07,-1.20613898716239e-06,-1.45474169703791e-06,4.41599192489174e-06,-6.99997387311599e-07,-1.67292839926092e-06,8.71472339334104e-07,-3.39943041052143e-06,-4.20360385878395e-07,-5.77830585330035e-06,2.08651883876705e-06,-5.91642795626107e-06,2.16979137032572e-06,-4.84236311150853e-06,5.08883286144673e-06,-1.89787009353668e-06,-1.31475525574557e-06,-3.74638481506058e-06,1.51857278907532e-06,3.70495785046914e-07,-3.92007479314662e-07,-1.26981574741869e-06,1.51338757684627e-07,2.48452317255551e-06,1.96845128027454e-07,3.27465598112281e-06,1.21058330847161e-06,2.1031512662671e-06,-5.90827000157776e-08,5.60887563783112e-07,-1.28791292030873e-07,5.25983864391984e-06,-3.42989807406049e-06,1.67624477668647e-06,-1.00690801500448e-06,2.81330590125909e-06,-4.46315895580686e-06,2.5653993710338e-06,-2.13174522455514e-06,2.17618498556005e-06,1.14666013894607e-07,1.57194227733762e-06,8.80196175180938e-07,2.73862283023554e-07,1.23984111681899e-06,3.04180510509582e-06,7.72729397345261e-07,4.2633249447078e-05,-0.000113095407129171,1.03318680905121e-06,8.87480031829089e-07,8.61894941487385e-07,-4.84362412525861e-07,-2.55207763047656e-07,-1.41047181734681e-07,4.81049493001419e-06,-4.40298352011251e-06,2.15710520502101e-06,-1.98886823741003e-06
-2.94210002437891e-06,-1.32797012006664e-06,-1.27852938164348e-06,-2.66044541194214e-07,-5.5687256368143e-06,-7.89506392696791e-07,-1.16172307445528e-06,-3.83128245076897e-08,-1.79266231022869e-07,2.37642938065618e-07,5.43224606127767e-06,-8.99455548976779e-08,-1.64470900857472e-06,-5.46992070831552e-07,-1.05771350749106e-06,-1.39302167264112e-06,4.38994149487242e-06,-6.83748850977237e-07,-1.6264216313306e-06,8.54582739491157e-07,-3.37151752567968e-06,-4.47095636162577e-07,-5.8000948929723e-06,2.15179964225068e-06,-5.94913389919814e-06,2.22092650040737e-06,-4.78272307699671e-06,5.15637658283135e-06,-1.95482711273947e-06,-1.32983908328566e-06,-3.64388172111671e-06,1.38922312972068e-06,3.74931342924377e-07,-3.7623855968065e-07,-1.19816358053838e-06,1.94072796523069e-07,2.51417713915585e-06,2.04368591291643e-07,3.37809496604317e-06,1.22535335331976e-06,2.17920191422694e-06,2.74621665790549e-08,5.45935164285403e-07,-8.8837399099362e-08,5.46494712749405e-06,-3.47743534735287e-06,1.7045322933206e-06,-1.01809989299913e-06,2.72659585924654e-06,-4.52738211075344e-06,2.55831787636576e-06,-2.08856205910768e-06,2.21698427576853e-06,1.36184321319857e-07,1.59660664225721e-06,9.20632503758163e-07,3.33101171464376e-07,1.29239485326684e-06,3.10841311858345e-06,8.01776267490037e-07,4.29169405727252e-05,-0.000114167261583927,1.05904572182675e-06,9.12527685590337e-07,8.21661691938331e-07,-4.95408989518118e-07,-2.59434506055141e-07,-1.51870300313652e-07,4.86506955802087e-06,-4.41491160878559e-06,2.28487308612442e-06,-2.07490460171409e-06
-2.95121540157959e-06,-1.33630685213682e-06,-1.26157957219014e-06,-2.50174500709348e-07,-5.57554502676399e-06,-7.7762433437962e-07,-1.11506806316776e-06,-1.7318113383774e-08,-1.9138750549263e-07,2.27359166662835e-07,5.4491368516843e-06,-1.00989812778433e-07,-1.67438958530862e-06,-5.61530926819481e-07,-9.02293910807949e-07,-1.32892498767434e-06,4.36262644262623e-06,-6.67045394051492e-07,-1.57604867296658e-06,8.35569339161825e-07,-3.33857367093855e-06,-4.73940373162425e-07,-5.81041146521569e-06,2.21186325900327e-06,-5.97855856411082e-06,2.27294572818649e-06,-4.70714318955612e-06,5.20805267410673e-06,-2.00660485456819e-06,-1.34496124937247e-06,-3.53190125093355e-06,1.25414959078536e-06,3.81834054281837e-07,-3.59995046029634e-07,-1.12256339164717e-06,2.36840538219027e-07,2.54370703739046e-06,2.11264559704839e-07,3.48707152067268e-06,1.23848436873678e-06,2.25737325002514e-06,1.12654373457474e-07,5.36586273809991e-07,-5.09881253449147e-08,5.67113776304436e-06,-3.52567964195635e-06,1.73417382601242e-06,-1.0283647715216e-06,2.6413954367059e-06,-4.58858770296338e-06,2.55609690620408e-06,-2.04558974320055e-06,2.25760556098813e-06,1.58017422599784e-07,1.62203848808473e-06,9.59681501039197e-07,3.96630145869893e-07,1.3427637702007e-06,3.1773124714542e-06,8.29993183036934e-07,4.3167593506886e-05,-0.000115137243808614,1.08922640871716e-06,9.37176532422444e-07,7.85139571521576e-07,-5.06050616117524e-07,-2.5998066623987e-07,-1.62437210785491e-07,4.92110975238327e-06,-4.42339750939198e-06,2.42024423918681e-06,-2.15887484124337e-06
-2.95497287473117e-06,-1.34459028413836e-06,-1.24181231121516e-06,-2.34499192282771e-07,-5.5773637643239e-06,-7.65504546544767e-07,-1.06390303975261e-06,3.59445109851961e-09,-2.00132715172955e-07,2.16250229117781e-07,5.46803848918357e-06,-1.12451337570904e-07,-1.69966108112299e-06,-5.75594659079191e-07,-7.40140670345576e-07,-1.26260436008678e-06,4.33421547113583e-06,-6.49888826187163e-07,-1.52186190524437e-06,8.14481337175502e-07,-3.30061209715415e-06,-5.00810686234256e-07,-5.80910255616982e-06,2.26652178760931e-06,-6.00462270426851e-06,2.32576123915065e-06,-4.61596029349899e-06,5.2438745602532e-06,-2.05296195963846e-06,-1.36004381591248e-06,-3.41050863166815e-06,1.11365435077402e-06,3.91283847463526e-07,-3.43323525400393e-07,-1.04308382359254e-06,2.79488852849338e-07,2.57310953427707e-06,2.1746274638609e-07,3.60150902750804e-06,1.24992009048891e-06,2.33755167603864e-06,1.96315457601535e-07,5.32895808278563e-07,-1.52899984267225e-08,5.87726925892569e-06,-3.57396600414126e-06,1.76518889682214e-06,-1.03767351189635e-06,2.5580149373279e-06,-4.64651646777374e-06,2.55863002258069e-06,-2.00290396553415e-06,2.29783478926281e-06,1.80130602391761e-07,1.64811593830442e-06,9.97248753907985e-07,4.64210626501889e-07,1.39085132709375e-06,3.24825384849098e-06,8.57312101481669e-07,4.33834017942517e-05,-0.000115999000185802,1.12379768335682e-06,9.61359857794615e-07,7.52550387150148e-07,-5.16234768113906e-07,-2.56749489742452e-07,-1.72741002723111e-07,4.97850935410384e-06,-4.42857248115312e-06,2.56318072905334e-06,-2.24051705734364e-06
-2.95326359663955e-06,-1.35278524427281e-06,-1.21919424372759e-06,-2.19066740917904e-07,-5.57404002593848e-06,-7.53156016679812e-07,-1.00828279106692e-06,2.43400757330491e-08,-2.05399235487519e-07,2.04284200408914e-07,5.48904002266381e-06,-1.24327874914391e-07,-1.720366898745e-06,-5.89174061082068e-07,-5.71543526740621e-07,-1.19422057676466e-06,4.30488939524611e-06,-6.32279795190151e-07,-1.46392574573146e-06,7.91371545398772e-07,-3.2576685678144e-06,-5.27621993082889e-07,-5.79606766575532e-06,2.31560420956832e-06,-6.02726857240802e-06,2.3792859267843e-06,-4.50963016450283e-06,5.26397191106506e-06,-2.09368471031153e-06,-1.37500995425168e-06,-3.27981899332848e-06,9.68074694453411e-07,4.03338069971308e-07,-3.26272793768587e-07,-9.59818965732679e-07,3.21860484659082e-07,2.60236892636085e-06,2.2289594387212e-07,3.72128359175256e-06,1.25960973120851e-06,2.41960063757666e-06,2.78274142810823e-07,5.34884962563102e-07,1.82217126716369e-08,6.08217983010271e-06,-3.62161584633818e-06,1.79757830398732e-06,-1.04600101947261e-06,2.47673365117379e-06,-4.70091846511412e-06,2.56577529532667e-06,-1.96056848114783e-06,2.33745413979009e-06,2.02487817569515e-07,1.67471013753567e-06,1.03324475043771e-06,5.35578260448425e-07,1.43657171337741e-06,3.3209642608387e-06,8.836678328936e-07,4.35626288956133e-05,-0.000116746478048165,1.16279727675538e-06,9.85011593386057e-07,7.24089374776945e-07,-5.25912593104899e-07,-2.49668347174886e-07,-1.82776458213868e-07,5.03713090873023e-06,-4.43056913992285e-06,2.71358552436571e-06,-2.31957809048174e-06
-2.9460077717035e-06,-1.36085274930782e-06,-1.19370212343297e-06,-2.03922760671437e-07,-5.56546116816528e-06,-7.40589810472272e-07,-9.48284442781468e-07,4.4834408966721e-08,-2.07106323417066e-07,1.91432228328668e-07,5.51220952349106e-06,-1.36617500911506e-07,-1.73637076571898e-06,-6.02261613214276e-07,-3.96821349898416e-07,-1.12394179977452e-06,4.27483803137533e-06,-6.14217877466553e-07,-1.40231668246015e-06,7.66295986950813e-07,-3.20980197278035e-06,-5.54289365267456e-07,-5.77125980427634e-06,2.35895660744533e-06,-6.04646046555946e-06,2.43343379611617e-06,-4.38872508249842e-06,5.26858899316284e-06,-2.12858826748879e-06,-1.38978450637823e-06,-3.13999838999334e-06,8.1778213249128e-07,4.18030837183094e-07,-3.08893705878365e-07,-8.72888456414171e-07,3.63794474402236e-07,2.63145674007295e-06,2.27500476688173e-07,3.84622296202238e-06,1.2675082437149e-06,2.50336070992515e-06,3.58366958541554e-07,5.42540172744613e-07,4.9523276449189e-08,6.2846952448634e-06,-3.66794367820291e-06,1.83132340411451e-06,-1.05332637540738e-06,2.39779729638846e-06,-4.75155416458323e-06,2.57735587849635e-06,-1.91863474848183e-06,2.37624307244846e-06,2.25051802458176e-07,1.70168583441697e-06,1.0675853642439e-06,6.10443799647735e-07,1.4798502932624e-06,3.39514786056405e-06,9.08998477838632e-07,4.37036090103471e-05,-0.000117373947847088,1.20623082403413e-06,1.00806642600866e-06,6.99923446578803e-07,-5.35039392382558e-07,-2.38689617644173e-07,-1.92540077912618e-07,5.09680541388847e-06,-4.42952078561193e-06,2.87130042688837e-06,-2.39581490047978e-06
-2.9331561790652e-06,-1.36875017376005e-06,-1.16532366369222e-06,-1.89110097718486e-07,-5.55154663928811e-06,-7.27819043556272e-07,-8.84008230705847e-07,6.49940010066394e-08,-2.05196551697083e-07,1.7766879493992e-07,5.53759044527659e-06,-1.49318498155774e-07,-1.7475580002255e-06,-6.14851547858125e-07,-2.16321901643544e-07,-1.05194283826763e-06,4.24425692715664e-06,-5.95701696851172e-07,-1.3371233102194e-06,7.39313528566514e-07,-3.15709484193337e-06,-5.80727844123835e-07,-5.73468621347904e-06,2.39644229481277e-06,-6.06218512829442e-06,2.48812032382598e-06,-4.25393017033651e-06,5.2580817036729e-06,-2.15751778819334e-06,-1.40429452740789e-06,-2.99126449393835e-06,6.63181215343543e-07,4.35372525766503e-07,-2.91239017103469e-07,-7.82437475556452e-07,4.05126605012841e-07,2.66033141313668e-06,2.31216623135911e-07,3.97610571148573e-06,1.27357654300429e-06,2.58864982685378e-06,4.36438803180591e-07,5.55812203872132e-07,7.86027890539048e-08,6.48363696030183e-06,-3.71226385632177e-06,1.86638552231392e-06,-1.05963294137712e-06,2.32141572136377e-06,-4.79819546569576e-06,2.59316084356592e-06,-1.87714172001339e-06,2.41397937111225e-06,2.47784160086424e-07,1.72890198490541e-06,1.10019230610865e-06,6.88494096342693e-07,1.52062397720189e-06,3.4704868809357e-06,9.33245846611747e-07,4.38047480420897e-05,-0.000117876023834932,1.25407104069356e-06,1.03045990541454e-06,6.80189600376186e-07,-5.43575055919607e-07,-2.23791430228861e-07,-2.0203008942985e-07,5.15733231065196e-06,-4.42556077179433e-06,3.036104388158e-06,-2.46899587767058e-06
-2.91469154854292e-06,-1.3764314413302e-06,-1.13405841294966e-06,-1.74668595953331e-07,-5.53225073405463e-06,-7.14858834856105e-07,-8.15578182786444e-07,8.47367594771328e-08,-1.99637113831438e-07,1.6297196308455e-07,5.56519815505119e-06,-1.62429227636028e-07,-1.75383669425215e-06,-6.2693990180783e-07,-3.04214904429495e-08,-9.78404389746306e-07,4.21334397222441e-06,-5.76729070784896e-07,-1.26844637472959e-06,7.10485562416683e-07,-3.0996537491558e-06,-6.06852745030547e-07,-5.6864088119989e-06,2.4279418755902e-06,-6.07445201257472e-06,2.54326277575015e-06,-4.10603849220308e-06,5.23291324066504e-06,-2.1803494214741e-06,-1.41846979846169e-06,-2.83388689372154e-06,5.04707962589387e-07,4.5534941734725e-07,-2.73363218515703e-07,-6.88636628487248e-07,4.45689894379894e-07,2.68893805883083e-06,2.33989001659602e-07,4.1106606930913e-06,1.27778168556752e-06,2.67526365451792e-06,5.12343446733472e-07,5.74615389291032e-07,1.0546045925175e-07,6.67783025603695e-06,-3.75389725217068e-06,1.90270549830112e-06,-1.06490843605304e-06,2.24776089524476e-06,-4.84062664826386e-06,2.6129462661864e-06,-1.83611578325137e-06,2.45044018046422e-06,2.70645438684057e-07,1.75621237292817e-06,1.13099353919148e-06,7.69393218410431e-07,1.55884151335152e-06,3.54664269979995e-06,9.56355854973254e-07,4.38645251379983e-05,-0.000118247683620911,1.30625709896108e-06,1.05212855140544e-06,6.64993506446767e-07,-5.51484447150858e-07,-2.04978254721022e-07,-2.11246438299569e-07,5.2184797236235e-06,-4.41882191540186e-06,3.20771223437723e-06,-2.5389020731384e-06
-2.89062976270171e-06,-1.38384723593752e-06,-1.0999186369819e-06,-1.60634884677425e-07,-5.50756514266253e-06,-7.01726240558891e-07,-7.43142695286643e-07,1.03982398589181e-07,-1.90420978440717e-07,1.47323606344982e-07,5.59501669655705e-06,-1.7594799942929e-07,-1.75513879925247e-06,-6.38524554063278e-07,1.60475492241606e-07,-9.03512254788388e-07,4.1822959350565e-06,-5.57297182758419e-07,-1.19639882830212e-06,6.79875748662804e-07,-3.03760959524487e-06,-6.3257994916904e-07,-5.62654436670102e-06,2.45335325209723e-06,-6.08329338814449e-06,2.59878047999039e-06,-3.94594497111272e-06,5.19364843304197e-06,-2.19699117625748e-06,-1.43224330213659e-06,-2.66818693258961e-06,3.42827846378443e-07,4.7792349770654e-07,-2.55322365609336e-07,-5.91681714996404e-07,4.85315151198126e-07,2.71720831581017e-06,2.35766917490389e-07,4.24956678201575e-06,1.2800970060485e-06,2.76297611311229e-06,5.85943970270626e-07,5.98827066620327e-07,1.30108847954484e-07,6.86611223173628e-06,-3.79217769632511e-06,1.94020337838987e-06,-1.06914498422574e-06,2.17696520967055e-06,-4.8786452446746e-06,2.63643655476258e-06,-1.79557084831827e-06,2.48540303891219e-06,2.93595192427648e-07,1.78346624693401e-06,1.15992365438112e-06,8.52783686210884e-07,1.59446369627535e-06,3.62325702581438e-06,9.78278891070184e-07,4.3881495274211e-05,-0.000118484287050384,1.36269421458092e-06,1.07300996047626e-06,6.54408284810517e-07,-5.58737731755181e-07,-1.82281334143933e-07,-2.20190761904921e-07,5.2799849518452e-06,-4.40943594038009e-06,3.38577381791939e-06,-2.60532833570435e-06
-2.86102085727631e-06,-1.39094522970016e-06,-1.06293018815586e-06,-1.47042187785698e-07,-5.47752124236297e-06,-6.88440167582526e-07,-6.66874986083813e-07,1.22652879481045e-07,-1.7756787127066e-07,1.30709620213321e-07,5.62699584609999e-06,-1.89872944654055e-07,-1.75142109858928e-06,-6.4960524791212e-07,3.55937165229204e-07,-8.27456529628644e-07,4.151304973181e-06,-5.3740277970955e-07,-1.12110589737568e-06,6.47549826653973e-07,-2.97111775722498e-06,-6.57826183137532e-07,-5.55526439327137e-06,2.47259160210739e-06,-6.08876429123294e-06,2.65459504637179e-06,-3.77463926736378e-06,5.14094687925836e-06,-2.20738365079574e-06,-1.44555165701034e-06,-2.4945370426092e-06,1.78033310289616e-07,5.03032416093086e-07,-2.37173900195509e-07,-4.91793370695244e-07,5.23831598556397e-07,2.74506028665023e-06,2.36504666650836e-07,4.39245291830754e-06,1.28050221125861e-06,2.85154004304599e-06,6.57113144767305e-07,6.28287267936946e-07,1.52573009056454e-07,7.04733953216866e-06,-3.82645805296246e-06,1.978778265078e-06,-1.0723391419131e-06,2.1091201105237e-06,-4.91206282505173e-06,2.6633260011389e-06,-1.75550857644919e-06,2.51864690929922e-06,3.16592026025604e-07,1.8105089716391e-06,1.18692420281198e-06,9.38287829848958e-07,1.6274634946142e-06,3.69995320922352e-06,9.989701467141e-07,4.38542932303649e-05,-0.000118581594754238,1.42325345237093e-06,1.09304291226721e-06,6.48473483387156e-07,-5.65310643010543e-07,-1.55758952784411e-07,-2.288663467352e-07,5.34155520957877e-06,-4.39753294977545e-06,3.56987361356784e-06,-2.66808434584376e-06
-2.82594979472969e-06,-1.39767032503748e-06,-1.02313334112001e-06,-1.33920153979405e-07,-5.44219208251075e-06,-6.75021265682113e-07,-5.86973408786426e-07,1.40672839234698e-07,-1.61125064575349e-07,1.13120112097949e-07,5.66104851762585e-06,-2.04201890786331e-07,-1.74266605212565e-06,-6.60183597020241e-07,5.55504890772625e-07,-7.50430781048676e-07,4.12055516422341e-06,-5.17042392568765e-07,-1.04270516198326e-06,6.13575503160173e-07,-2.90035809227245e-06,-6.82509287432484e-07,-5.47279479162981e-06,2.48558934523365e-06,-6.09094229920651e-06,2.71063051913893e-06,-3.59319783546139e-06,5.07555517342312e-06,-2.21150061209448e-06,-1.45833551049053e-06,-2.3133595658247e-06,1.08408605180426e-08,5.30589607450596e-07,-2.18976464047123e-07,-3.89216569246287e-07,5.61067564320642e-07,2.77239856783581e-06,2.36161796391897e-07,4.53889846222597e-06,1.27898343103966e-06,2.94068800721424e-06,7.25733756015764e-07,6.62798722538274e-07,1.72890476306576e-07,7.22039571307205e-06,-3.85611582758408e-06,2.01830833486704e-06,-1.0744919010331e-06,2.04427507509805e-06,-4.94070568949866e-06,2.69328052684378e-06,-1.7159187366001e-06,2.54995320423645e-06,3.39593626777407e-07,1.83718269421851e-06,1.21194398322546e-06,1.02550926305346e-06,1.65782610193608e-06,3.77633767941934e-06,1.01838990527303e-06,4.37816389122252e-05,-0.000118535786290696,1.48777175491631e-06,1.11216747723617e-06,6.47194264762597e-07,-5.71184677557054e-07,-1.25496535041843e-07,-2.37278069432645e-07,5.40286861743113e-06,-4.38324092807784e-06,3.75953077776286e-06,-2.72699554161557e-06
-2.78553699041818e-06,-1.4039649082165e-06,-9.80583574532292e-07,-1.21294707982765e-07,-5.40169401967227e-06,-6.61491797912485e-07,-5.03661613046374e-07,1.57970006111241e-07,-1.41167956099749e-07,9.45495682116065e-08,5.69704856761811e-06,-2.18932242124877e-07,-1.72888250053721e-06,-6.70263075842892e-07,7.58694156032874e-07,-6.72631207855166e-07,4.09021910429103e-06,-4.96212577398927e-07,-9.61346646928428e-07,5.78022425336076e-07,-2.82553478680505e-06,-7.06548474884337e-07,-5.37941522228654e-06,2.49229611599704e-06,-6.08992712685541e-06,2.76681345524244e-06,-3.40277542899399e-06,4.99829857301408e-06,-2.20934941523128e-06,-1.47053988999943e-06,-2.12512508121323e-06,-1.5821220119529e-07,5.60484578072234e-07,-2.00789702268316e-07,-2.84219980872031e-07,5.96851236603881e-07,2.79911437301206e-06,2.34703322842285e-07,4.68843387448609e-06,1.27553322493016e-06,3.03013322125792e-06,7.91698881424913e-07,7.02127218937277e-07,1.91111047338467e-07,7.38419822190404e-06,-3.8805582808995e-06,2.05865103072961e-06,-1.07560867466205e-06,1.98243694661827e-06,-4.96441546643202e-06,2.72593959691769e-06,-1.67677967086303e-06,2.57910679900829e-06,3.62556791967081e-07,1.86332702388948e-06,1.23493928251193e-06,1.11403446855854e-06,1.68554891486819e-06,3.85200151024791e-06,1.03650377987787e-06,4.36623435208878e-05,-0.000118343477279022,1.55605219459538e-06,1.130325128736e-06,6.50540806998927e-07,-5.76347218201409e-07,-9.16065718676703e-08,-2.45432322381676e-07,5.46357544865705e-06,-4.36668528330745e-06,3.95419968743694e-06,-2.78190393576398e-06
-2.73993857528425e-06,-1.40976911237538e-06,-9.35352279137279e-07,-1.0918792321242e-07,-5.35618796527011e-06,-6.47875489734065e-07,-4.17188538094411e-07,1.74475598687002e-07,-1.17800422624267e-07,7.49969959263311e-08,5.73482904414079e-06,-2.34060866921799e-07,-1.71010621905262e-06,-6.79848995035314e-07,9.64995610004111e-07,-5.94255792992272e-07,4.06045461924147e-06,-4.74910173762128e-07,-8.7719291767338e-07,5.40962236641268e-07,-2.74687604403815e-06,-7.29864580010572e-07,-5.27545822743709e-06,2.4926787533607e-06,-6.08584005102911e-06,2.82307293217842e-06,-3.20459633943418e-06,4.91007247036013e-06,-2.20097125529505e-06,-1.48211451178738e-06,-1.93035024878387e-06,-3.28571349932584e-07,5.92583353523466e-07,-1.82674054377057e-07,-1.77095184502001e-07,6.31011479123686e-07,2.82508575077522e-06,2.32099907339946e-07,4.84054173363799e-06,1.27015054346192e-06,3.11957060773267e-06,8.54912120913984e-07,7.46002351004615e-07,2.07296332447159e-07,7.5377049983801e-06,-3.89922706990573e-06,2.09964343053565e-06,-1.07569926059682e-06,1.92356963475001e-06,-4.98304962010001e-06,2.76091827759177e-06,-1.63805884904555e-06,2.60589702726098e-06,3.85437458105136e-07,1.88877972338526e-06,1.2558740686246e-06,1.20343448980036e-06,1.71064144091117e-06,3.92652211089024e-06,1.05328289982156e-06,4.3495315809195e-05,-0.000118001734657059,1.62786444614415e-06,1.14745886410901e-06,6.5844792315746e-07,-5.80791583696393e-07,-5.42283728651344e-08,-2.53336924934976e-07,5.52329963524816e-06,-4.34798843832822e-06,4.15327097032416e-06,-2.83266882387653e-06
-2.68934638259685e-06,-1.41502108905576e-06,-8.87527373864145e-07,-9.76179163949612e-08,-5.30588021318699e-06,-6.34197357411211e-07,-3.27828227818927e-07,1.90124706656466e-07,-9.11549356821398e-08,5.44660404148593e-08,5.77418091833923e-06,-2.49583992442944e-07,-1.68640031182583e-06,-6.88948462685719e-07,1.17387626234567e-06,-5.1550345016213e-07,4.03140163344876e-06,-4.53132576335055e-07,-7.90419161176645e-07,5.02468697605225e-07,-2.66463360538031e-06,-7.52380300382752e-07,-5.16130809580602e-06,2.48672130509611e-06,-6.07882317777349e-06,2.87934049883667e-06,-2.9999456267605e-06,4.81183398011554e-06,-2.18644124744207e-06,-1.49301404569773e-06,-1.7295951532206e-06,-4.99668708426031e-07,6.26729087120801e-07,-1.64690531838408e-07,-6.81557249700339e-08,6.63378693375646e-07,2.85017789861765e-06,2.28327992467295e-07,4.99465810177925e-06,1.26284064406065e-06,3.20867797253133e-06,9.15287782378923e-07,7.94118645519807e-07,2.21519065248485e-07,7.67992070183975e-06,-3.91160245238513e-06,2.14110278941276e-06,-1.07477777937163e-06,1.86759418824509e-06,-4.99648187329545e-06,2.79780942036813e-06,-1.59971349770363e-06,2.63011866148281e-06,4.08190732179189e-07,1.91337741061011e-06,1.27472013583853e-06,1.29326672456102e-06,1.73312513632099e-06,3.99946503641591e-06,1.06870404816321e-06,4.32795677164543e-05,-0.000117508089290815,1.70294547477351e-06,1.16351334049565e-06,6.70814905893907e-07,-5.84517009492174e-07,-1.35276433546352e-08,-2.61001021512537e-07,5.58164053070866e-06,-4.32726947319452e-06,4.35607303179859e-06,-2.87916738141198e-06
-2.63398764943998e-06,-1.41965728811908e-06,-8.37213813620495e-07,-8.65987641835012e-08,-5.25102281950741e-06,-6.20483516500547e-07,-2.35879456847668e-07,2.04856651016829e-07,-6.13924297668728e-08,3.29650743463277e-08,5.81485233037777e-06,-2.65497108967812e-07,-1.65785543888076e-06,-6.97570332245029e-07,1.38478085003386e-06,-4.36573168697663e-07,4.00317923920902e-06,-4.30878015468491e-07,-7.01213222803174e-07,4.62617842154849e-07,-2.57908210210657e-06,-7.74020431657169e-07,-5.03739946467277e-06,2.47442503327588e-06,-6.06903856727261e-06,2.9355500853339e-06,-2.79016052918673e-06,4.70459385658377e-06,-2.16586833264227e-06,-1.50319833340077e-06,-1.52346012864478e-06,-6.70927225196086e-07,6.62742827398229e-07,-1.46900482092925e-07,4.22639975489237e-08,6.93785710588029e-07,2.87424357571546e-06,2.23369897683086e-07,5.15017424684362e-06,1.25361496388322e-06,3.29711730280777e-06,9.72751021987874e-07,8.46137041957199e-07,2.33862207510899e-07,7.80990257091799e-06,-3.91720708990181e-06,2.18282725333952e-06,-1.07286258388636e-06,1.81438924304478e-06,-5.00460255233234e-06,2.83618596150048e-06,-1.56169129629766e-06,2.65157288411469e-06,4.30770920877222e-07,1.93695626953907e-06,1.29145720211504e-06,1.38307681737452e-06,1.75303317311314e-06,4.07038590993931e-06,1.08274975662804e-06,4.30142189415686e-05,-0.000116860545493216,1.78100043315944e-06,1.17843503191058e-06,6.87505605659415e-07,-5.87528566785834e-07,3.03041132036089e-08,-2.68434967745088e-07,5.63817491729406e-06,-4.30464381236829e-06,4.56187407657016e-06,-2.92129514533393e-06
-2.57412442657422e-06,-1.42361274636237e-06,-7.84533974569997e-07,-7.61404412791299e-08,-5.19191351191141e-06,-6.06760971341056e-07,-1.4166515833961e-07,2.18615321241545e-07,-2.87019161802432e-08,1.05072593652768e-08,5.85654837492495e-06,-2.81794883555932e-07,-1.62458986765177e-06,-7.05725138291443e-07,1.59713337697574e-06,-3.57663160267967e-07,3.9758830076227e-06,-4.08145842216112e-07,-6.09775571975573e-07,4.21488141979476e-07,-2.49051823454523e-06,-7.94712098444057e-07,-4.90421564954708e-06,2.45580840037421e-06,-6.05666722812018e-06,2.99163788479382e-06,-2.57662214782429e-06,4.58940883284822e-06,-2.1393950075961e-06,-1.51263255735917e-06,-1.31258209944074e-06,-8.41765115376763e-07,7.00424442865442e-07,-1.29365340458934e-07,1.5381001182903e-07,7.22068702742606e-07,2.89712361824545e-06,2.17213873229124e-07,5.30643872609917e-06,1.24249095359541e-06,3.38453618888025e-06,1.0272379370875e-06,9.01686679705515e-07,2.44417903726197e-07,7.92676592017009e-06,-3.91560947641822e-06,2.22459674203269e-06,-1.0699761404076e-06,1.76379184418216e-06,-5.00731885935922e-06,2.87560333135286e-06,-1.52393114027743e-06,2.6700682513319e-06,4.53131556559283e-07,1.95935277081647e-06,1.30607295720028e-06,1.47240064796354e-06,1.77041013405081e-06,4.13883244873281e-06,1.09540836317026e-06,4.26985003530959e-05,-0.000116057587406998,1.86170376053803e-06,1.19217241404572e-06,7.08348750085439e-07,-5.89837026870694e-07,7.70503662573548e-08,-2.75650205810214e-07,5.69245924240106e-06,-4.28022294859942e-06,4.7698846188565e-06,-2.9589663762723e-06
-2.51005269322021e-06,-1.42682138513151e-06,-7.29627904444844e-07,-6.62487793061328e-08,-5.12889511280757e-06,-5.93057386759661e-07,-4.55316458228209e-08,2.31349487069335e-07,6.7001613977286e-09,-1.28894218136011e-08,5.89893144383311e-06,-2.98471084378446e-07,-1.58674934144692e-06,-7.13425021697784e-07,1.81033883043293e-06,-2.78970010815052e-07,3.9495825784446e-06,-3.8493681322372e-07,-5.16319177636304e-07,3.79160660927352e-07,-2.39925977783036e-06,-8.14384982851694e-07,-4.76228669498292e-06,2.43090701912871e-06,-6.04190798666871e-06,3.04754221467985e-06,-2.36074742429915e-06,4.46737438051079e-06,-2.10719687659287e-06,-1.52128735909067e-06,-1.09763054160855e-06,-1.01160043639458e-06,7.39553701126371e-07,-1.12146372007417e-07,2.66110225325742e-07,7.48068113373254e-07,2.91864756090305e-06,2.09854110081256e-07,5.46275983273823e-06,1.22949187555927e-06,3.47056937702837e-06,1.07869560552112e-06,9.60366948444004e-07,2.53286341850144e-07,8.02968926316249e-06,-3.9064270007521e-06,2.26617399913153e-06,-1.06614488295438e-06,1.7155986331452e-06,-5.00455507303171e-06,2.9156019684882e-06,-1.48636397266515e-06,2.68542164308197e-06,4.75225426272745e-07,1.98040440284857e-06,1.31856305968019e-06,1.56076641215783e-06,1.78531163470243e-06,4.20434658841489e-06,1.10667403426063e-06,4.23317563843029e-05,-0.0001150981825052,1.94470047916528e-06,1.2046761813709e-06,7.33138507278869e-07,-5.91458673771115e-07,1.26470500797847e-07,-2.82659130309416e-07,5.74403207184061e-06,-4.25411419898396e-06,4.9792604719598e-06,-2.99211429942472e-06
-2.44210117700462e-06,-1.42921631686655e-06,-6.72653427006693e-07,-5.69254457870583e-08,-5.06235446835667e-06,-5.79400843740359e-07,5.21523762446533e-08,2.43013082783099e-07,4.45708304226253e-08,-3.72021636676862e-08,5.94162213530785e-06,-3.15518516467736e-07,-1.54450675896847e-06,-7.20683645731215e-07,2.02378507593894e-06,-2.00687841025734e-07,3.92431956192606e-06,-3.61253370786974e-07,-4.21069283046111e-07,3.35719190988088e-07,-2.30564441644797e-06,-8.32971551134277e-07,-4.61218714799503e-06,2.39977356060285e-06,-6.02497623260478e-06,3.10320335935776e-06,-2.14398138825005e-06,4.33961786174239e-06,-2.06948202117428e-06,-1.52913890845836e-06,-8.79303196932298e-07,-1.17985563741309e-06,7.79891497143151e-07,-9.53044053599361e-08,3.78776020805654e-07,7.71629616043043e-07,2.93863436694609e-06,2.0129070341723e-07,5.61840840488412e-06,1.21464656854676e-06,3.55484046015093e-06,1.12708206462651e-06,1.02174976925287e-06,2.60574562126915e-07,8.11791902591523e-06,-3.88932862797486e-06,2.30730580540532e-06,-1.06139904348679e-06,1.66956738683012e-06,-4.99625267574369e-06,2.95570992700556e-06,-1.44891367916291e-06,2.69745918602481e-06,4.97004616658201e-07,1.9999504128185e-06,1.32893108255743e-06,1.64769679040319e-06,1.79780387144879e-06,4.2664667002583e-06,1.11654675107048e-06,4.19134466115885e-05,-0.000113981782519358,2.02960768609911e-06,1.21589949722498e-06,7.61635289925268e-07,-5.92415064012331e-07,1.78300928541964e-07,-2.89474946347209e-07,5.79241675029598e-06,-4.22642049353426e-06,5.18910620556834e-06,-3.02069122472245e-06
-2.37062988380388e-06,-1.43073016019317e-06,-6.13786091401363e-07,-4.81679429144475e-08,-4.99272088377645e-06,-5.65819581336371e-07,1.50997015496785e-07,2.53565462233204e-07,8.46417495905507e-08,-6.24033671771715e-08,5.98420073005099e-06,-3.32928969658598e-07,-1.49806166221905e-06,-7.27516103686429e-07,2.2368449296523e-06,-1.23007478701261e-07,3.90010578082059e-06,-3.37099913379659e-07,-3.24263078070618e-07,2.91250371692786e-07,-2.21002841295104e-06,-8.50407277384622e-07,-4.45453356273326e-06,2.36247762357529e-06,-6.00610254143007e-06,3.15856339158216e-06,-1.92778963812441e-06,4.20729205756675e-06,-2.02649018177621e-06,-1.53616892908968e-06,-6.58321651135891e-07,-1.34596196277889e-06,8.21181223107648e-07,-7.889955961077e-08,4.91403980715259e-07,7.92605109227251e-07,2.95689326694321e-06,1.91529567808499e-07,5.77262099247622e-06,1.19798918157513e-06,3.63696370732321e-06,1.17236622752211e-06,1.0853820854005e-06,2.66395242155008e-07,8.19077380669868e-06,-3.86403718079372e-06,2.34772434709701e-06,-1.05577245910589e-06,1.62541889210427e-06,-4.98237040596307e-06,2.99544555957775e-06,-1.41149803318826e-06,2.70601713415356e-06,5.18420588843891e-07,2.01783255561099e-06,1.33718840882871e-06,1.73271119786583e-06,1.80796309452397e-06,4.32472989581259e-06,1.12503225814658e-06,4.14431466253043e-05,-0.000112708321982018,2.11601623967714e-06,1.22579827280103e-06,7.93566793287466e-07,-5.92732731371986e-07,2.32256362930752e-07,-2.96111521639649e-07,5.83712425670695e-06,-4.19724019868291e-06,5.3984790552792e-06,-3.04466854771549e-06
-2.29602834603077e-06,-1.43129536331115e-06,-5.53218958576134e-07,-3.99696263571387e-08,-4.92046407142718e-06,-5.52341727349735e-07,2.50592607587395e-07,2.62971623185909e-07,1.26620619886176e-07,-8.84607004413939e-08,6.02620922707169e-06,-3.50693179156791e-07,-1.44763953272998e-06,-7.33938817337379e-07,2.44887840484016e-06,-4.6115646550426e-08,3.87692187674904e-06,-3.1248305199781e-07,-2.26149278256743e-07,2.45843807294958e-07,-2.1127851176627e-06,-8.66630862714455e-07,-4.28998174740305e-06,2.31910556962329e-06,-5.98553117933198e-06,3.2135659721633e-06,-1.71365100201661e-06,4.07156904110153e-06,-1.97849174511495e-06,-1.54236468639584e-06,-4.3542685796951e-07,-1.50936365170397e-06,8.63150271038201e-07,-6.29909647001126e-08,6.03577725709466e-07,8.10853754362387e-07,2.97322470432436e-06,1.80582304278529e-07,5.92460337279621e-06,1.17955888192219e-06,3.71654602560871e-06,1.21452773991355e-06,1.15078854505776e-06,2.70865482218268e-07,8.24764816073296e-06,-3.83033122702823e-06,2.3871487286914e-06,-1.04930235601463e-06,1.58283914113844e-06,-4.96288423628809e-06,3.03432026066608e-06,-1.37402967603879e-06,2.71094269497381e-06,5.39424292507592e-07,2.03389584880805e-06,1.34335407928058e-06,1.81532810893687e-06,1.81587500726351e-06,4.37867441110515e-06,1.13214197429471e-06,4.09205482502179e-05,-0.000111278214497275,2.20349263946562e-06,1.23433146754081e-06,8.28629259265583e-07,-5.92442837049249e-07,2.88031251587093e-07,-3.02583234384769e-07,5.87765623736838e-06,-4.16666697810789e-06,5.60639326547655e-06,-3.06403663309437e-06
-2.2187135997271e-06,-1.43084453589609e-06,-4.91162217757738e-07,-3.23197449478131e-08,-4.84609162186573e-06,-5.38995020285732e-07,3.50511342132844e-07,2.71202399784778e-07,1.70192838256279e-07,-1.15337190238094e-07,6.06715392581239e-06,-3.68800798689564e-07,-1.39349089660339e-06,-7.39969424674165e-07,2.65923512789562e-06,2.98058309176781e-08,3.85471630205303e-06,-2.87411847783168e-07,-1.26987628719214e-07,1.99592202716469e-07,-2.01430332609213e-06,-8.81584448678795e-07,-4.11922376486498e-06,2.26976032898349e-06,-5.96351850396086e-06,3.26815613428643e-06,-1.50305029061829e-06,3.93363429754416e-06,-1.92578653191162e-06,-1.54771894349954e-06,-2.11374681148613e-07,-1.66952189967448e-06,9.05511658907829e-07,-4.7636475072651e-08,7.14869859646843e-07,8.26243059999447e-07,2.9874213842054e-06,1.6846602191441e-07,6.07353440153183e-06,1.15939954433266e-06,3.79318904194379e-06,1.25355678430641e-06,1.21747435712164e-06,2.74105615045165e-07,8.28801591713451e-06,-3.78804660935482e-06,2.4252866181279e-06,-1.04202910905847e-06,1.54148183493979e-06,-4.93778727858209e-06,3.07184126322322e-06,-1.3364171253873e-06,2.71209479455328e-06,5.59966320808728e-07,2.04798933294696e-06,1.34745459416542e-06,1.89506744698031e-06,1.82163409610109e-06,4.42784206044903e-06,1.13789286645339e-06,4.03454592238105e-05,-0.000109692346917932,2.29158109653929e-06,1.24146140282095e-06,8.66488959854252e-07,-5.91580770016445e-07,3.45301358806619e-07,-3.08904818392538e-07,5.91350819740968e-06,-4.13478969436959e-06,5.81182484599408e-06,-3.07880458404938e-06
-2.13912790175316e-06,-1.42931078984581e-06,-4.27842626705744e-07,-2.52035025077379e-08,-4.77014601231434e-06,-5.25806525140464e-07,4.50309094133758e-07,2.78234622064873e-07,2.15023383197264e-07,-1.42991343421752e-07,6.10650853537966e-06,-3.87240385840713e-07,-1.33589023836456e-06,-7.45626655454771e-07,2.86725691777334e-06,1.04580797668245e-07,3.83340471421396e-06,-2.6189802667187e-07,-2.70483491165505e-08,1.52591530909443e-07,-1.91498549098624e-06,-8.95213823962514e-07,-3.94298470316722e-06,2.21456118932643e-06,-5.94033128186024e-06,3.32228006661128e-06,-1.29747102526302e-06,3.79468093005284e-06,-1.86870238143721e-06,-1.55222988776671e-06,1.30684786383538e-08,-1.82591852987218e-06,9.47965770929361e-07,-3.28923767345093e-08,8.24844016469383e-07,8.38650006952342e-07,2.99926942046391e-06,1.55203118788905e-07,6.21857018326526e-06,1.13755942816008e-06,3.86649128976903e-06,1.2894538393484e-06,1.28492830229998e-06,2.76238059703957e-07,8.31143304157645e-06,-3.73707765468064e-06,2.46183601167754e-06,-1.03399597534044e-06,1.50097118310935e-06,-4.90708961520684e-06,3.10751449002228e-06,-1.29856581606236e-06,2.70934477875715e-06,5.79997103356413e-07,2.05996683591086e-06,1.3495236698004e-06,1.97145302753627e-06,1.82534289814296e-06,4.4717807470502e-06,1.14230728756897e-06,3.97178025162494e-05,-0.000107952071688666,2.3798057887046e-06,1.24715408164632e-06,9.06783894434566e-07,-5.90185705198803e-07,4.03725489857333e-07,-3.15091206771652e-07,5.9441728320949e-06,-4.10169235823835e-06,6.0137167233406e-06,-3.08899990174129e-06
-2.05773620082147e-06,-1.42662808858635e-06,-3.63502771190303e-07,-1.86021430781258e-08,-4.69320117471293e-06,-5.12802345906648e-07,5.49527454319251e-07,2.84051241593308e-07,2.60758918859818e-07,-1.71377296406451e-07,6.14371778396464e-06,-4.0599939912968e-07,-1.27513472408968e-06,-7.50930193885513e-07,3.07228051961341e-06,1.78039509864515e-07,3.81286978334524e-06,-2.35956167266675e-07,7.33884755055913e-08,1.0494122588566e-07,-1.81524579753584e-06,-9.07468623377327e-07,-3.76201924138123e-06,2.15364358701003e-06,-5.91624494632332e-06,3.37588491172205e-06,-1.09838803821915e-06,3.65590380419338e-06,-1.80759353264241e-06,-1.5559010277082e-06,2.37129924628645e-07,-1.97805930299142e-06,9.90202201763195e-07,-1.88130887235702e-08,9.3305700433934e-07,8.47962197808277e-07,3.00854957427306e-06,1.40821027851132e-07,6.35884854171083e-06,1.11409084743325e-06,3.93605048325245e-06,1.3222294005181e-06,1.35262588156814e-06,2.77386232541509e-07,8.31754004510526e-06,-3.67737807064484e-06,2.49648710467507e-06,-1.02524880110687e-06,1.46090498515166e-06,-4.8708180510297e-06,3.14084746185186e-06,-1.26037918300794e-06,2.70257704890344e-06,5.99467133807781e-07,2.06968773785811e-06,1.34960195152323e-06,2.04401504084333e-06,1.82711121311782e-06,4.51004701395316e-06,1.14541277945071e-06,3.90376155278281e-05,-0.000106059197616655,2.46767329281316e-06,1.2513795076097e-06,9.49125694178655e-07,-5.88300126161521e-07,4.62947347811932e-07,-3.21157375331272e-07,5.96914347867025e-06,-4.06745413535768e-06,6.21098426468709e-06,-3.09466803804137e-06
-1.97502338028916e-06,-1.42273160381312e-06,-2.98400142181343e-07,-1.24930605363891e-08,-4.61585865518448e-06,-5.00007338104713e-07,6.47695949158402e-07,2.88641422385611e-07,3.07030101380939e-07,-2.00444990761149e-07,6.17820149265916e-06,-4.25064206603628e-07,-1.21154273604648e-06,-7.55900528886522e-07,3.27364047938412e-06,2.50019349321991e-07,3.79296141555956e-06,-2.09603858631425e-07,1.74033565700984e-07,5.6744380759155e-08,-1.71550811229111e-06,-9.1830251837571e-07,-3.57710804036454e-06,2.08715891581682e-06,-5.89154181718275e-06,3.4289185928777e-06,-9.07259905610706e-07,3.51849357308116e-06,-1.74283880596465e-06,-1.55874105730769e-06,4.60034754286218e-07,-2.12547679525987e-06,1.03190169326082e-06,-5.45086091092076e-09,1.03906104041961e-06,8.54079005279077e-07,3.01503857541267e-06,1.25351933422041e-07,6.49349376575813e-06,1.08904983706207e-06,4.00146586122858e-06,1.35190366642958e-06,1.42003257589109e-06,2.77673528160351e-07,8.30606393172149e-06,-3.60896150645585e-06,2.52892425399746e-06,-1.01583570305293e-06,1.4208579741481e-06,-4.82901577770529e-06,3.1713522598262e-06,-1.22175979425571e-06,2.69168963062586e-06,6.18327227265961e-07,2.07701772997156e-06,1.34773668601289e-06,2.11229255866223e-06,1.82705526521265e-06,4.54220861594045e-06,1.14724184185897e-06,3.83050494156036e-05,-0.000104015979249786,2.55467518367499e-06,1.25411199682406e-06,9.93101724271488e-07,-5.85969315634683e-07,5.22597512575696e-07,-3.27118186692339e-07,5.98791766503778e-06,-4.03214941764744e-06,6.40252114644421e-06,-3.09587184173775e-06
-1.89149129360392e-06,-1.41755807827394e-06,-2.32806032376019e-07,-6.84993325555376e-09,-4.53874340340634e-06,-4.87444824877772e-07,7.44334438887029e-07,2.92000596253229e-07,3.53454069100588e-07,-2.30140373341242e-07,6.20935907107307e-06,-4.44420105947867e-07,-1.14545222278737e-06,-7.60558793451791e-07,3.47067214404962e-06,3.20365502903422e-07,3.77349738934492e-06,-1.82861825134415e-07,2.74589195900775e-07,8.10792440319422e-09,-1.61620381722405e-06,-9.27673398478534e-07,-3.38905397945676e-06,2.01527434949854e-06,-5.86650929810033e-06,3.48132967609362e-06,-7.25521248405709e-07,3.38363062464802e-06,-1.67483959347217e-06,-1.56076368293057e-06,6.81009796149635e-07,-2.26773279252824e-06,1.07273815217192e-06,7.14452930721426e-09,1.14240606854978e-06,8.56912692951657e-07,3.01851051620282e-06,1.08832463886145e-07,6.62162160389168e-06,1.06249581726805e-06,4.06234058383597e-06,1.37850619441835e-06,1.48660717805951e-06,2.7722238979425e-07,8.27681967974909e-06,-3.53190174467054e-06,2.55882801957734e-06,-1.00580672728216e-06,1.38038540063808e-06,-4.781741942241e-06,3.19854853196123e-06,-1.18261053312576e-06,2.67659467819592e-06,6.36528797525668e-07,2.08182955857453e-06,1.34398135796039e-06,2.17583605125295e-06,1.82529681983011e-06,4.56784709295721e-06,1.14783166944183e-06,3.75203687349573e-05,-0.000101825104890124,2.64029078747e-06,1.25533047766274e-06,1.03827737420407e-06,-5.83240816064375e-07,5.8229553145487e-07,-3.32988235903383e-07,6.0000007253595e-06,-3.9958479581219e-06,6.58720553213809e-06,-3.09269089587736e-06
-1.80765561312925e-06,-1.41104619351653e-06,-1.67004255698265e-07,-1.6428843036278e-09,-4.4624992319147e-06,-4.75136320243462e-07,8.38955680711904e-07,2.94130481766753e-07,3.99637097724022e-07,-2.60405620046086e-07,6.23657438913966e-06,-4.64051356175094e-07,-1.07721886951256e-06,-7.64926595253551e-07,3.6627147719241e-06,3.88931603954383e-07,3.75426439948598e-06,-1.55754015792931e-07,3.74750038737402e-07,-4.08572497013201e-08,-1.51776954002559e-06,-9.35543542883167e-07,-3.19867824298573e-06,1.93817265349598e-06,-5.8414380607412e-06,3.5330672705753e-06,-5.54574974832147e-07,3.25247904285888e-06,-1.60401766616788e-06,-1.56198740787689e-06,8.99287390677769e-07,-2.40442017157482e-06,1.11238073834488e-06,1.89260781585991e-08,1.24264215403301e-06,8.56389487452755e-07,3.01873830726565e-06,9.13033665600605e-08,6.74234447773152e-06,1.03449125795806e-06,4.11828416734108e-06,1.40207552878637e-06,1.55180515278568e-06,2.76153488515576e-07,8.22971124434845e-06,-3.44633248365056e-06,2.58587727441645e-06,-9.952134899273e-07,1.33902683429819e-06,-4.72907111581041e-06,3.2219665269198e-06,-1.14283581699972e-06,2.65721892094165e-06,6.54024140336818e-07,2.0840037464439e-06,1.33839529716799e-06,2.23420990165541e-06,1.82196226174484e-06,4.58656032817452e-06,1.14722385816203e-06,3.66839514409344e-05,-9.94896831250687e-05,2.7239900774829e-06,1.25501877461402e-06,1.08419852892369e-06,-5.80163865665927e-07,6.41652110990012e-07,-3.38781698231397e-07,6.00490944776038e-06,-3.95861505672685e-06,6.76390651879881e-06,-3.08522074318637e-06
-1.7240425121473e-06,-1.40313694168599e-06,-1.0128969474961e-07,3.16133239023624e-09,-4.38778398581103e-06,-4.6310126320979e-07,9.31068043603146e-07,2.95039066217361e-07,4.45177401172935e-07,-2.91179382580208e-07,6.259220977729e-06,-4.83941220718112e-07,-1.00721409468188e-06,-7.69025840895304e-07,3.84911473825836e-06,4.55580331812673e-07,3.73501950095213e-06,-1.28307655848309e-07,4.7420412227241e-07,-9.00362244068612e-08,-1.42064479165921e-06,-9.41879781283521e-07,-3.00681624769859e-06,1.85605195032064e-06,-5.81662022155735e-06,3.58408096925902e-06,-3.95784510356524e-07,3.12618065260402e-06,-1.5308128065271e-06,-1.56243527193538e-06,1.1141090123009e-06,-2.53516426227039e-06,1.15049601379502e-06,2.98498504025822e-08,1.33932195269296e-06,8.5245058644757e-07,3.01549518458276e-06,7.28091708273472e-08,6.85477688433889e-06,1.00510134511754e-06,4.16891494535577e-06,1.42265880302323e-06,1.61508199452441e-06,2.74585014167312e-07,8.16473204354396e-06,-3.35244664838934e-06,2.60975137334217e-06,-9.84108802995769e-07,1.29631016105382e-06,-4.6710926641441e-06,3.24115013036607e-06,-1.10234282855932e-06,2.63350405843155e-06,6.70766712240879e-07,2.08342928447222e-06,1.33104326167434e-06,2.28699490434112e-06,1.81718164341562e-06,4.59796507601478e-06,1.14546408258396e-06,3.57962891493747e-05,-9.70132277199566e-05,2.80523669927953e-06,1.25316587382434e-06,1.13039421503335e-06,-5.76788819978258e-07,7.00271399725253e-07,-3.44512179838405e-07,6.00217571761849e-06,-3.92051177889989e-06,6.93149080690064e-06,-3.07357199775447e-06
-1.64118520215903e-06,-1.39377400006981e-06,-3.59666834727491e-08,7.59911969775743e-09,-4.31526446784476e-06,-4.51356766718057e-07,1.0201783590671e-06,2.94740550354053e-07,4.8966805700819e-07,-3.22397057318049e-07,6.27666750648673e-06,-5.04072021202979e-07,-9.35822881701304e-07,-7.72878556247797e-07,4.02922881908931e-06,5.20183965472689e-07,3.71549194061649e-06,-1.00553258618679e-07,5.72633907185941e-07,-1.39310080163602e-07,-1.32526952359898e-06,-9.4665364308358e-07,-2.81431340130529e-06,1.76912540326678e-06,-5.79234751581779e-06,3.63432083007571e-06,-2.50465982393762e-07,3.00584912829001e-06,-1.45568027360763e-06,-1.56213454712803e-06,1.32472873460649e-06,-2.65962370051233e-06,1.18675014192832e-06,3.98752636183032e-08,1.43200325020908e-06,8.45053087677825e-07,3.00855625804522e-06,5.33978446371714e-08,6.95804095509529e-06,9.74393651999083e-07,4.21386254509569e-06,1.44031131435324e-06,1.67589658160346e-06,2.72632050529241e-07,8.08196487538426e-06,-3.25049515041462e-06,2.63013236917295e-06,-9.72546288609539e-07,1.25175575132922e-06,-4.60791002598488e-06,3.25565987275867e-06,-1.06104272758701e-06,2.6054071062014e-06,6.86711402706519e-07,2.08000428817717e-06,1.32199500094738e-06,2.33379073375113e-06,1.81108771309548e-06,4.60169944534945e-06,1.1426017453733e-06,3.48579874475049e-05,-9.43996407843505e-05,2.8834911093346e-06,1.24976616860277e-06,1.17637941311812e-06,-5.7316657025431e-07,7.57753350370783e-07,-3.50192572219962e-07,5.99135012294742e-06,-3.88159519184625e-06,7.08882954566711e-06,-3.05786934459648e-06
-1.55962035305008e-06,-1.38290410663429e-06,2.86527641237932e-08,1.17097990564527e-08,-4.24561117138997e-06,-4.39917385540404e-07,1.10579488882538e-06,2.9325525607277e-07,5.3270003203211e-07,-3.53991074973396e-07,6.28828348098353e-06,-5.24425200403562e-07,-8.6344145837452e-07,-7.76506705163394e-07,4.20242753247398e-06,5.82624887674953e-07,3.69538535824824e-06,-7.25245961308835e-08,6.69717475783709e-07,-1.88555991143106e-07,-1.23208161934721e-06,-9.49841494654259e-07,-2.62202069111499e-06,1.67762078909736e-06,-5.76890947320896e-06,3.6837373952673e-06,-1.19880257513932e-07,2.89256404294311e-06,-1.3790881083652e-06,-1.56111639428449e-06,1.53041654251176e-06,-2.77749079092752e-06,1.22081112369873e-06,4.89653581287721e-08,1.52025156137568e-06,8.34170820937391e-07,2.99770009235029e-06,3.31204478940885e-08,7.05127213621949e-06,9.42437818289916e-07,4.25277036491842e-06,1.45509606770336e-06,1.73371455401739e-06,2.70405980369529e-07,7.9815812356203e-06,-3.14078504394337e-06,2.64670726268838e-06,-9.60579985128743e-07,1.20488077228077e-06,-4.53963991033771e-06,3.26507587365653e-06,-1.01885180877121e-06,2.57290068944368e-06,7.01814802438254e-07,2.07363661512591e-06,1.31132480142463e-06,2.37421836738938e-06,1.80381493114368e-06,4.59742532187732e-06,1.13868960142449e-06,3.38697660075997e-05,-9.16531942602192e-05,2.95821380822127e-06,1.24481968215284e-06,1.22165802244918e-06,-5.69347968205228e-07,8.13696148331179e-07,-3.55834911462129e-07,5.9720054957126e-06,-3.8419186122881e-06,7.2348053046995e-06,-3.03825043378726e-06
-1.47988442750383e-06,-1.37047743483176e-06,9.22508651306436e-08,1.55353471041011e-08,-4.17949287802827e-06,-4.28794907041502e-07,1.18743038734224e-06,2.90609497404585e-07,5.7386528128542e-07,-3.8589120958655e-07,6.29344509703035e-06,-5.44981392058525e-07,-7.90474839297419e-07,-7.79932008686148e-07,4.36809851342014e-06,6.42796036013988e-07,3.67438033316658e-06,-4.4258627683568e-08,7.65129814027206e-07,-2.37647379768445e-07,-1.14151433590595e-06,-9.51424664615525e-07,-2.43079011534908e-06,1.5817799405109e-06,-5.74659159830334e-06,3.73228174148684e-06,-5.22473880020571e-09,2.78736470709553e-06,-1.30151428781451e-06,-1.55941548656392e-06,1.73046149289445e-06,-2.88849141047993e-06,1.25235105577908e-06,5.70870499126241e-08,1.60364277264426e-06,8.1979506113303e-07,2.98271031189251e-06,1.20307852503883e-08,7.13362495377767e-06,9.09305240018295e-07,4.28529803708883e-06,1.46708328668001e-06,1.78801174704225e-06,2.6801386558068e-07,7.86384004633143e-06,-3.02367709163609e-06,2.65917027240652e-06,-9.48263949305214e-07,1.15520361521354e-06,-4.46641142596556e-06,3.26900068753561e-06,-9.75692573014526e-07,2.53597328242854e-06,7.1603546995399e-07,2.06424444157451e-06,1.29911101519114e-06,2.4079224498769e-06,1.79549848111122e-06,4.58483071368125e-06,1.13378336142946e-06,3.28324583514941e-05,-8.87785099516346e-05,3.02886865066336e-06,1.23833226144489e-06,1.26572596328113e-06,-5.65383265412387e-07,8.67698693264668e-07,-3.61450243487416e-07,5.94374037100411e-06,-3.80153186662822e-06,7.36831912580909e-06,-3.01486468057907e-06
-1.40250996000819e-06,-1.35644796618036e-06,1.54506103493935e-07,1.91201081421109e-08,-4.11757117427046e-06,-4.179981681035e-07,1.26460523621354e-06,2.86835415136761e-07,6.12759893634336e-07,-4.18024905147352e-07,6.29154119038159e-06,-5.65720494590156e-07,-7.17334246568089e-07,-7.83175766883099e-07,4.52564989854456e-06,7.00601298065633e-07,3.65213725066941e-06,-1.57953863132047e-08,8.58544170046041e-07,-2.8645411430741e-07,-1.05399371022733e-06,-9.51389557177102e-07,-2.24146998349433e-06,1.48185805281509e-06,-5.72567355690677e-06,3.77990554962313e-06,9.23750717814782e-08,2.69124372826541e-06,-1.22344373823088e-06,-1.55706960531647e-06,1.92417472765036e-06,-2.99238450813526e-06,1.28104839622732e-06,6.42113645365095e-08,1.68176581069813e-06,8.01935099117162e-07,2.96337722267552e-06,-9.8149395412445e-09,7.20427882553896e-06,8.75068771674765e-07,4.31112385964508e-06,1.47634988988106e-06,1.83827768443922e-06,2.65557779226077e-07,7.7290858244768e-06,-2.89958280626344e-06,2.66722511194585e-06,-9.35651859180763e-07,1.10224840837025e-06,-4.38836515711929e-06,3.26706201878129e-06,-9.3149468459862e-07,2.49462939522856e-06,7.29334194405552e-07,2.05175679843475e-06,1.28543557202678e-06,2.43457358704012e-06,1.78627328148343e-06,4.56363200515781e-06,1.12794128210677e-06,3.17470113052811e-05,-8.57805384510294e-05,3.09492621886821e-06,1.23031573232429e-06,1.30807440514687e-06,-5.61321577110178e-07,9.19363121115717e-07,-3.67048496501778e-07,5.90618235031888e-06,-3.76048156714603e-06,7.4882976142754e-06,-2.98787198591136e-06
-1.32802180791683e-06,-1.34077385879884e-06,2.15095374856441e-07,2.25104833826315e-08,-4.06049493853214e-06,-4.07532900853524e-07,1.33685062750859e-06,2.81970775489291e-07,6.48987258051706e-07,-4.50317617733216e-07,6.28197922212584e-06,-5.86621745470203e-07,-6.44434424351867e-07,-7.86258685564872e-07,4.67451369664985e-06,7.55955847918889e-07,3.62829946046775e-06,1.28221760082989e-08,9.49633484087195e-07,-3.34842743131543e-07,-9.69935944920613e-07,-9.49727753452252e-07,-2.05490012176119e-06,1.37812286122699e-06,-5.70642736638084e-06,3.82656118127728e-06,1.7187412294297e-07,2.60514034520765e-06,-1.14536521992574e-06,-1.55411921207562e-06,2.11089235478968e-06,-3.08896128420986e-06,1.30659022459981e-06,7.03136498793821e-08,1.75422532398008e-06,7.80618647686235e-07,2.93949944531326e-06,-3.23584657830668e-08,7.26244388196344e-06,8.3980244076813e-07,4.32994718044869e-06,1.4829789324778e-06,1.88401909456527e-06,2.63134105363021e-07,7.57774630303867e-06,-2.7689610359294e-06,2.67058726397985e-06,-9.22796622824686e-07,1.04554958226806e-06,-4.30565219793397e-06,3.25891527696882e-06,-8.86195791745389e-07,2.44888971315829e-06,7.41674246626921e-07,2.03611406605234e-06,1.27038347644057e-06,2.45387055843612e-06,1.77627300478941e-06,4.53357610492409e-06,1.12122375057259e-06,3.06144843498279e-05,-8.26645373601581e-05,3.15586724700301e-06,1.22078800463009e-06,1.34819311151051e-06,-5.57210381919086e-07,9.68297354160958e-07,-3.72638361863104e-07,5.85899135384046e-06,-3.71881140788262e-06,7.59370003224736e-06,-2.95744139380858e-06
-1.25693340287507e-06,-1.32341780919157e-06,2.7369622337363e-07,2.57545981587931e-08,-4.00889485181867e-06,-3.97401609487601e-07,1.40371177184605e-06,2.76058733596343e-07,6.82161224099269e-07,-4.82693170570209e-07,6.26419123922129e-06,-6.07663793107311e-07,-5.7219086559906e-07,-7.89200710085169e-07,4.81414911934305e-06,8.08786421746591e-07,3.60249669501466e-06,4.1548382891389e-08,1.03807189297774e-06,-3.8267676558545e-07,-8.89744788664066e-07,-9.46436100333703e-07,-1.87190702434748e-06,1.27085370094212e-06,-5.68911558717636e-06,3.87220174925182e-06,2.32316282319382e-07,2.52993367123057e-06,-1.06776809884468e-06,-1.55060700000138e-06,2.28997822694884e-06,-3.17804415106566e-06,1.32867448406429e-06,7.53737644474514e-08,1.8206443661256e-06,7.55892062685848e-07,2.9108855521756e-06,-5.55398125895313e-08,7.30736675644205e-06,8.0358117510338e-07,4.34149071218902e-06,1.48705901633856e-06,1.92476339216349e-06,2.60832838162812e-07,7.41032949404069e-06,-2.6323141306654e-06,2.66898623791335e-06,-9.09749997841862e-07,9.84656449349781e-07,-4.2184331556571e-06,3.24424594684685e-06,-8.39742193322858e-07,2.39879119564842e-06,7.53021603506698e-07,2.01726842419491e-06,1.25404229439509e-06,2.46554243148156e-06,1.76562911242865e-06,4.49444247223104e-06,1.11369286797676e-06,2.94360491211571e-05,-7.94360491787718e-05,3.21118608027365e-06,1.20977311861976e-06,1.38557388766434e-06,-5.53095068601546e-07,1.01411766488487e-06,-3.78227184563388e-07,5.80186274073594e-06,-3.67656248257141e-06,7.68352535500397e-06,-2.92374970386818e-06
-1.18974303599028e-06,-1.30434740397104e-06,3.29989149759789e-07,2.89019488631755e-08,-3.96337799296365e-06,-3.8760348043688e-07,1.46475110388822e-06,2.69147562906131e-07,7.11909228085443e-07,-5.15074119265238e-07,6.23763974575945e-06,-6.28824763594321e-07,-5.01016973748094e-07,-7.9202086797906e-07,4.94404584213401e-06,8.59031530177834e-07,3.57434870966579e-06,7.0335065704388e-08,1.1235363102157e-06,-4.29816940258769e-07,-8.13808929595494e-07,-9.41516786005385e-07,-1.69329899192408e-06,1.16034046129163e-06,-5.67398951704585e-06,3.91678117299699e-06,2.72842513481069e-07,2.46643600884807e-06,-9.9113902262961e-07,-1.54657742930371e-06,2.46082665434707e-06,-3.25948557943191e-06,1.34701219206532e-06,7.93762374007892e-08,1.88066706473613e-06,7.27820365892805e-07,2.87735569900828e-06,-7.92976079891612e-08,7.33833630087963e-06,7.66480544491531e-07,4.3455027528121e-06,1.48868367511627e-06,1.96006207549345e-06,2.58736903122346e-07,7.22742017977819e-06,-2.49018371146119e-06,2.66216779441203e-06,-8.96562225391533e-07,9.19137755202941e-07,-4.12687713165459e-06,3.22277175265008e-06,-7.92089342410581e-07,2.34438713869321e-06,7.63345127951117e-07,1.99518425117044e-06,1.23650163677915e-06,2.46935055554967e-06,1.75446991480327e-06,4.446045006061e-06,1.10541203463535e-06,2.82129892579861e-05,-7.61008791993847e-05,3.26039414456114e-06,1.19730122993433e-06,1.41971411203473e-06,-5.49018537739429e-07,1.05645123711299e-06,-3.83820864377163e-07,5.73453026958896e-06,-3.63377362338667e-06,7.75681924473831e-06,-2.88698005715531e-06
-1.12693021344648e-06,-1.28353545850296e-06,3.83659966525934e-07,3.20030319219273e-08,-3.92452258331161e-06,-3.78134328002704e-07,1.51955145554416e-06,2.61290351785894e-07,7.37875355559364e-07,-5.4738212462261e-07,6.20182341862853e-06,-6.50082320221973e-07,-4.31321185004531e-07,-7.94737121721162e-07,5.06372716454437e-06,9.06641605385461e-07,3.54346910287027e-06,9.91318310165476e-08,1.20570807576955e-06,-4.76121632327807e-07,-7.42499422078991e-07,-9.34977400849219e-07,-1.51986129488433e-06,1.04688244005217e-06,-5.66128739815306e-06,3.96025421538167e-06,2.92698552085229e-07,2.4153864147491e-06,-9.15958520986184e-07,-1.54207625228116e-06,2.62286508867774e-06,-3.33316692701354e-06,1.36132960450792e-06,8.23103971112345e-08,1.9339612482772e-06,6.96487069196421e-07,2.83874323973295e-06,-1.03569408059396e-07,7.35468918073828e-06,7.2857651961963e-07,4.34175928699614e-06,1.48795074137023e-06,1.98949400216859e-06,2.56921515678498e-07,7.02967583435068e-06,-2.34314606892796e-06,2.64989611755769e-06,-8.83281680761834e-07,8.48586158306952e-07,-4.03116068940119e-06,3.19424460576573e-06,-7.432021888988e-07,2.28574719993833e-06,7.72616692414485e-07,1.96983846711521e-06,1.21785264600768e-06,2.46509041576327e-06,1.74291966614738e-06,4.38823378374151e-06,1.09644553780661e-06,2.69467007215459e-05,-7.26650737361385e-05,3.30302339708638e-06,1.1834085378242e-06,1.45012032615432e-06,-5.45020862025776e-07,1.0949387068656e-06,-3.89423768481002e-07,5.65676886792418e-06,-3.59048175427711e-06,7.81268089255486e-06,-2.84732051233428e-06
-1.06895211591102e-06,-1.2609603402354e-06,4.3440217596299e-07,3.51089571851367e-08,-3.89287294074186e-06,-3.68986577153455e-07,1.56771916780768e-06,2.52544668698282e-07,7.59723312970084e-07,-5.79538330752253e-07,6.15628260518792e-06,-6.71413714164823e-07,-3.63504075963007e-07,-7.97366232606368e-07,5.17275303941129e-06,9.51579081074828e-07,3.50946927504439e-06,1.27886360617718e-07,1.28427466351818e-06,-5.21447203107279e-07,-6.76167167098697e-07,-9.26830982785752e-07,-1.3523513912526e-06,9.30787098998389e-07,-5.65123265617777e-06,4.00257650158382e-06,2.91241879375402e-07,2.37744470092313e-06,-8.42697552774232e-07,-1.53715003287431e-06,2.77555680650692e-06,-3.39899733257596e-06,1.37137031771071e-06,8.41704671213442e-08,1.98022099519469e-06,6.61993814809195e-07,2.79489631421032e-06,-1.28292004639431e-07,7.35581530632773e-06,6.89945249984424e-07,4.33006595059961e-06,1.48496170130624e-06,2.01266850923914e-06,2.5545360087108e-07,6.81782199591177e-06,-2.19180722534298e-06,2.63195591675274e-06,-8.69954541873189e-07,7.72622598711357e-07,-3.93146681926299e-06,3.15845233496837e-06,-6.93055372608587e-07,2.22295738238622e-06,7.80811244356391e-07,1.94122082038222e-06,1.1981874891514e-06,2.45259333225382e-06,1.73109770216701e-06,4.32089664002304e-06,1.08685814417797e-06,2.56386926945144e-05,-6.9134899017747e-05,3.33862972732911e-06,1.16813716668982e-06,1.47631185687447e-06,-5.41139005059002e-07,1.12923666617708e-06,-3.95038656181637e-07,5.5683971827723e-06,-3.54672224994388e-06,7.85026968136572e-06,-2.80496262837072e-06
-1.01624018798747e-06,-1.23660627476281e-06,4.81919348247179e-07,3.82710478475826e-08,-3.86893469355448e-06,-3.60149284595323e-07,1.60888711479819e-06,2.42972197622696e-07,7.77139285066627e-07,-6.11463746570767e-07,6.10060454807978e-06,-6.92795825252084e-07,-2.97955479143322e-07,-7.99923636546957e-07,5.27072294449199e-06,9.93818403907853e-07,3.47196248696469e-06,1.5654474102895e-07,1.35893142826971e-06,-5.6564844043721e-07,-6.15140465187674e-07,-9.17096046773564e-07,-1.19149422484769e-06,8.12368724308924e-07,-5.64403219540027e-06,4.04370452303017e-06,2.67947831675418e-07,2.35318601875667e-06,-7.71814025447736e-07,-1.53184566368035e-06,2.91840360522918e-06,-3.4569127391759e-06,1.37689729287711e-06,8.49556304084678e-08,2.01916906632958e-06,6.24459855802561e-07,2.74567940042706e-06,-1.53401721255771e-07,7.34116306160456e-06,6.50662861002903e-07,4.31025984572034e-06,1.47982104159597e-06,2.02922833934328e-06,2.5439130657474e-07,6.59264712685584e-06,-2.03679769510351e-06,2.60815444340283e-06,-8.5662447807783e-07,6.90900519571239e-07,-3.82798390973322e-06,3.11522020166667e-06,-6.41633278994735e-07,2.15611997437643e-06,7.87906818334361e-07,1.90933411879712e-06,1.17759885878085e-06,2.43172799413327e-06,1.7191176276528e-06,4.24396057881516e-06,1.0767147005233e-06,2.42905891890387e-05,-6.55168210499577e-05,3.36679627878831e-06,1.15153501083008e-06,1.49782444310193e-06,-5.37406595883647e-07,1.15902011384638e-06,-4.00666616464495e-07,5.46927988948487e-06,-3.50252929237205e-06,7.86881162664709e-06,-2.76010007154156e-06
-9.69196880480313e-07,-1.2104636321517e-06,5.25927477967622e-07,4.15404289509815e-08,-3.85317030045163e-06,-3.51608198780565e-07,1.64271761493698e-06,2.32638346047735e-07,7.89834657163005e-07,-6.43079629367886e-07,6.03442828773145e-06,-7.14205192429529e-07,-2.35051628692597e-07,-8.0242333232194e-07,5.35727857023273e-06,1.03334597523765e-06,3.43056797870208e-06,1.85051818968474e-07,1.42938336738931e-06,-6.08579017916615e-07,-5.59722660472942e-07,-9.05796598605515e-07,-1.03797763552663e-06,6.91947008416857e-07,-5.63987477309475e-06,4.08359562948461e-06,2.22414753015606e-07,2.34309610267862e-06,-7.03749316373779e-07,-1.52620988189324e-06,3.05094850204309e-06,-3.50687508387551e-06,1.37769478874178e-06,8.46700634744855e-08,2.05055918327554e-06,5.84021400990361e-07,2.69097482187911e-06,-1.78834697170202e-07,7.31024429312493e-06,6.10805269656731e-07,4.28221119419591e-06,1.47263559428874e-06,2.03885234227676e-06,2.53783630756954e-07,6.35499702269756e-06,-1.87876699716805e-06,2.57832340844465e-06,-8.4333236300987e-07,6.0310990615503e-07,-3.72090473396366e-06,3.06441219700044e-06,-5.88929963194614e-07,2.08535344711498e-06,7.93884498994298e-07,1.87419440698513e-06,1.15617948313528e-06,2.40240181535569e-06,1.70708656091668e-06,4.1573930069305e-06,1.06607974649704e-06,2.29041314912599e-05,-6.18174866726741e-05,3.38713666397443e-06,1.13365554753329e-06,1.51421383652032e-06,-5.33853755258802e-07,1.18398483635251e-06,-4.06307019247001e-07,5.35932973719403e-06,-3.45793621748758e-06,7.86760555209577e-06,-2.71292726438634e-06
-9.28192570331695e-07,-1.18252919036287e-06,5.66157295959743e-07,4.49676069296761e-08,-3.84599492551071e-06,-3.43345859145128e-07,1.66890520303917e-06,2.21611828541472e-07,7.97548581890712e-07,-6.74307869630265e-07,5.95744919478897e-06,-7.35618034348619e-07,-1.75152360105757e-07,-8.04877782807737e-07,5.43210629619257e-06,1.07016002239734e-06,3.38491510833022e-06,2.13351578968593e-07,1.4953468681562e-06,-6.50091964089847e-07,-5.10189895567249e-07,-8.92962132792422e-07,-8.92447925943319e-07,5.69845585588626e-07,-5.63892947119332e-06,4.12220801112791e-06,1.5436814421274e-07,2.34756721912984e-06,-6.38924829492182e-07,-1.52028878514425e-06,3.17277840106574e-06,-3.54887165940552e-06,1.37357018891039e-06,8.33229408648121e-08,2.07417812025719e-06,5.40830841956698e-07,2.63068419838578e-06,-2.04527159183505e-07,7.26263901958049e-06,5.70448018893525e-07,4.24582481304112e-06,1.46351388986107e-06,2.04125794285436e-06,2.53670153890796e-07,6.10576886175946e-06,-1.71837801530172e-06,2.54232078584837e-06,-8.30116015424161e-07,5.08981105519148e-07,-3.6104254596303e-06,3.0059321115328e-06,-5.34948944438034e-07,2.01079231180601e-06,7.98728337003768e-07,1.83583108868134e-06,1.13402164924796e-06,2.3645620975929e-06,1.69510444110302e-06,4.06120277683091e-06,1.05501714284963e-06,2.14811814722511e-05,-5.80437058820278e-05,3.39929804692152e-06,1.11455761935162e-06,1.52505934340019e-06,-5.30506969268425e-07,1.20384970096976e-06,-4.11957481196543e-07,5.23850930730822e-06,-3.41297584229309e-06,7.8460289532053e-06,-2.66363808986446e-06
-8.9356268449564e-07,-1.15280637253001e-06,6.02356511863767e-07,4.86020432134515e-08,-3.8477727179366e-06,-3.35341734286297e-07,1.68717923600977e-06,2.09964229150108e-07,8.00050370288615e-07,-7.05071376266142e-07,5.86942308732414e-06,-7.57010261160109e-07,-1.18598388277284e-07,-8.07297830308712e-07,5.49493942866535e-06,1.10427039928459e-06,3.33464746980198e-06,2.41387539490022e-07,1.55655141503559e-06,-6.90040125837926e-07,-4.66788997746555e-07,-8.78627613447557e-07,-7.55505634124375e-07,4.46390558405397e-07,-5.64134427655499e-06,4.15950067150231e-06,6.36637623842272e-08,2.36689489456593e-06,-5.77738622632916e-07,-1.51412734847687e-06,3.283526672729e-06,-3.58291461899664e-06,1.36435571173493e-06,8.09284093017213e-08,2.08984758592995e-06,4.95055874081544e-07,2.56472982758924e-06,-2.30415681106367e-07,7.19799982091348e-06,5.29666132430847e-07,4.20104139222749e-06,1.45256553190297e-06,2.03620338552704e-06,2.54080846436732e-07,5.84590501218113e-06,-1.55630133421009e-06,2.50003248720835e-06,-8.17009970929717e-07,4.08288389849558e-07,-3.49674468987016e-06,2.93972437029313e-06,-4.79702877438221e-07,1.9325869355656e-06,8.0242522109534e-07,1.79428699219021e-06,1.11121674393618e-06,2.31819698906225e-06,1.68326340289769e-06,3.95544102827995e-06,1.04358971702155e-06,2.00237255894721e-05,-5.42024352629146e-05,3.40296406969565e-06,1.09430518662836e-06,1.52996727560883e-06,-5.27389005780708e-07,1.21835884337847e-06,-4.17613846706062e-07,5.10683246427933e-06,-3.36768076092313e-06,7.80354350019538e-06,-2.61242465812704e-06
-8.65605048766916e-07,-1.12130545542562e-06,6.3429196416176e-07,5.24917251417133e-08,-3.85881353763947e-06,-3.27572397973859e-07,1.69730630673153e-06,1.97769545620207e-07,7.97141688884287e-07,-7.3529446054404e-07,5.7701698959129e-06,-7.78357478802332e-07,-6.57086857666294e-08,-8.09692627955931e-07,5.54556017579665e-06,1.13569831663197e-06,3.27942695387827e-06,2.69103164400432e-07,1.61274123997545e-06,-7.28276619314717e-07,-4.29735515424894e-07,-8.62833436414654e-07,-6.27701550736889e-07,3.21909040994265e-07,-5.64724477760016e-06,4.19543339362365e-06,-4.97103772103932e-08,2.40127551438273e-06,-5.20562138987841e-07,-1.50776894486794e-06,3.38287557845304e-06,-3.60904056537435e-06,1.34990999243961e-06,7.75055298350058e-08,2.09742588410009e-06,4.46878518480451e-07,2.49305598627797e-06,-2.56437431655127e-07,7.1160558688963e-06,4.88533992420517e-07,4.14783855693882e-06,1.43990060716084e-06,2.0234897686907e-06,2.55035924445379e-07,5.57638671126876e-06,-1.39320966582476e-06,2.45137389467511e-06,-8.0404528645047e-07,3.00853229498856e-07,-3.38006254334622e-06,2.86577463412284e-06,-4.23213116165979e-07,1.85090331113171e-06,8.04964714739778e-07,1.74961837877839e-06,1.08785481704556e-06,2.26333623499869e-06,1.67164722241258e-06,3.84020182499734e-06,1.03185892704223e-06,1.85338791820392e-05,-5.03007621700293e-05,3.39785760124688e-06,1.07296705460277e-06,1.52857428242668e-06,-5.24518869217666e-07,1.22728373380809e-06,-4.2327018435016e-07,4.96436548828765e-06,-3.32208360041106e-06,7.73970013542636e-06,-2.55947614062642e-06
-8.44577473604821e-07,-1.08804374703706e-06,6.61751657862459e-07,5.66827374210058e-08,-3.87937015343719e-06,-3.20011741234848e-07,1.69909244477324e-06,1.85103718174442e-07,7.88658547124386e-07,-7.64903215825118e-07,5.65957685179691e-06,-7.99634987037224e-07,-1.67779801667209e-08,-8.12069589248287e-07,5.58380134173423e-06,1.16447600305477e-06,3.21893772159085e-06,2.96442287163943e-07,1.66367690908453e-06,-7.64655270630047e-07,-3.99211921402693e-07,-8.45625370858595e-07,-5.09533003592204e-07,1.96727726492813e-07,-5.6567329851992e-06,4.22996670390835e-06,-1.85633107533505e-07,2.45080484133354e-06,-4.67737072516194e-07,-1.50125487371685e-06,3.47055847287511e-06,-3.62731014873647e-06,1.33011952824788e-06,7.30781868763181e-08,2.09680935598002e-06,3.96494044989821e-07,2.41563014245666e-06,-2.82530411711911e-07,7.0166165668223e-06,4.4712524206255e-07,4.08623170057103e-06,1.42562914235405e-06,2.00296286716111e-06,2.56545746066631e-07,5.29822769959632e-06,-1.22977242506228e-06,2.39629124137578e-06,-7.91249378741617e-07,1.86547246530068e-07,-3.26057978226946e-06,2.78411017359575e-06,-3.65509190397616e-07,1.76592277087606e-06,8.0633887411278e-07,1.70189489548999e-06,1.0640241698849e-06,2.20005171697099e-06,1.66033083896625e-06,3.71562258515253e-06,1.01988454450846e-06,1.70138905673678e-05,-4.63458892384846e-05,3.38374328785293e-06,1.0506165806847e-06,1.52055053640371e-06,-5.2191178882101e-07,1.23042510695752e-06,-4.28918799035423e-07,4.81122789049402e-06,-3.27621723251069e-06,7.65414372423834e-06,-2.50497767680911e-06
-8.30695584640836e-07,-1.05304573132313e-06,6.84546672136387e-07,6.12188374982537e-08,-3.90963593217286e-06,-3.12631218593318e-07,1.69238508519196e-06,1.72044145799619e-07,7.74473060816581e-07,-7.9382588912293e-07,5.53760118342293e-06,-8.20817772854669e-07,2.79256107125897e-08,-8.14434356514393e-07,5.60954772439435e-06,1.19064629862623e-06,3.1528900611627e-06,3.23349545089567e-07,1.70913684690249e-06,-7.99031056494899e-07,-3.75365998026297e-07,-8.27054478892115e-07,-4.0144042418395e-07,7.1171474292436e-08,-5.66988628571242e-06,4.26306183734766e-06,-3.43850281986539e-07,2.51547743955932e-06,-4.19572395311754e-07,-1.49462390333103e-06,3.54636172401864e-06,-3.63780760446943e-06,1.30489997617057e-06,6.76749647017033e-08,2.08793361561545e-06,3.44109789936742e-07,2.33244406782957e-06,-3.08633680887021e-07,6.89957477022595e-06,4.05512713592156e-07,4.0162745779567e-06,1.40986061646886e-06,1.9745147216033e-06,2.58610760428813e-07,5.01246784683108e-06,-1.06665045945257e-06,2.33476282783454e-06,-7.78645897798203e-07,6.5294823800854e-08,-3.13849699792834e-06,2.69480001958585e-06,-3.06628213948099e-07,1.67784163077491e-06,8.06542071736234e-07,1.65119947362657e-06,1.03981097061452e-06,2.12845777276301e-06,1.64937995856807e-06,3.58188430120351e-06,1.00772435776906e-06,1.54661445174981e-05,-4.23451189253934e-05,3.3604298843258e-06,1.02733136505053e-06,1.50560274402385e-06,-5.19579234679695e-07,1.22761474046839e-06,-4.34550260010946e-07,4.64759291684113e-06,-3.23011494271254e-06,7.54661721752265e-06,-2.44910935854173e-06
-8.24130908673875e-07,-1.01634317808005e-06,7.02512919905058e-07,6.61410387170203e-08,-3.94974303752079e-06,-3.05400126648399e-07,1.67707478672484e-06,1.58669193661407e-07,7.54494976843116e-07,-8.2199324006863e-07,5.40427231251112e-06,-8.41880502375452e-07,6.81627851218728e-08,-8.16790786990843e-07,5.62273720228551e-06,1.21426218335379e-06,3.08102409653538e-06,3.49770820474968e-07,1.74891880387795e-06,-8.31260563706972e-07,-3.58309419160571e-07,-8.07177012061619e-07,-3.03804213609539e-07,-5.44380889523719e-08,-5.68675653058691e-06,4.2946807013627e-06,-5.23975960258382e-07,2.59518698381854e-06,-3.76341576348331e-07,-1.48791183339714e-06,3.61012631009865e-06,-3.64064018894587e-06,1.27419729104823e-06,6.13289943274079e-08,2.07077458862538e-06,2.89943864430554e-07,2.24351483754145e-06,-3.34687572204966e-07,6.76490956119284e-06,3.63768379636753e-07,3.93805965157491e-06,1.39270353445492e-06,1.93808496189458e-06,2.61221526611951e-07,4.72016678036634e-06,-9.04490920384468e-07,2.26680006137412e-06,-7.6625463485243e-07,-6.29246513661647e-08,-3.01401386319113e-06,2.59795488863301e-06,-2.4661423879719e-07,1.5868707476583e-06,8.05570851925561e-07,1.59762817284972e-06,1.01529889740635e-06,2.04871128423827e-06,1.6388507436424e-06,3.43921154010144e-06,9.95433896477901e-07,1.38931648411542e-05,-3.83058379595391e-05,3.32777234507265e-06,1.00319292479213e-06,1.48347694899355e-06,-5.17528954772542e-07,1.21871706608109e-06,-4.40153444764443e-07,4.47368774691507e-06,-3.18381055858892e-06,7.41696528341867e-06,-2.39204529521138e-06
-8.25009230237128e-07,-9.77975215819396e-07,7.15512741626381e-07,7.14872057711795e-08,-3.99976115738908e-06,-2.98285912940959e-07,1.65309668107927e-06,1.45057695851162e-07,7.2867294505545e-07,-8.49338883139482e-07,5.25969354445193e-06,-8.62797516357188e-07,1.0372508454312e-07,-8.1914095375116e-07,5.62336149820525e-06,1.23538624360358e-06,3.00311331407911e-06,3.75653684779108e-07,1.78284127415659e-06,-8.61202493456423e-07,-3.48116542137184e-07,-7.86054283516191e-07,-2.16941928756747e-07,-1.79783956503831e-07,-5.70736926094011e-06,4.32478582953187e-06,-7.2549460096315e-07,2.68972749210432e-06,-3.38280022294356e-07,-1.4811510822286e-06,3.66174908175424e-06,-3.63593751209111e-06,1.23798869136548e-06,5.40777753840347e-08,2.04534935225962e-06,2.34223762796117e-07,2.14888570328376e-06,-3.60633893582362e-07,6.61268854807245e-06,3.21963323782194e-07,3.85171818885477e-06,1.3742650649578e-06,1.89366183353838e-06,2.6435881415745e-07,4.42239753808802e-06,-7.43922288107388e-07,2.1924483066259e-06,-7.54091463141537e-07,-1.98074924194973e-07,-2.88732846004967e-06,2.4937268776216e-06,-1.8551756505699e-07,1.49323497732566e-06,8.03423836240895e-07,1.54128997083524e-06,9.9056880862668e-07,1.96101152509454e-06,1.62878958945376e-06,3.2878722149379e-06,9.83066178193749e-07,1.22976159088813e-05,-3.42355016624062e-05,3.285673656388e-06,9.78286350119884e-07,1.45396109787645e-06,-5.15765026541026e-07,1.20363059890144e-06,-4.45715598622053e-07,4.28979339376213e-06,-3.1373385362756e-06,7.26513737175151e-06,-2.33395276099265e-06
-8.33409232222065e-07,-9.3798836577356e-07,7.23436319469878e-07,7.72916675969205e-08,-4.05969676948305e-06,-2.91254512238689e-07,1.62043163904031e-06,1.3128845793122e-07,6.96995526791891e-07,-8.75799609807187e-07,5.10404324974836e-06,-8.83542834351004e-07,1.34436725709095e-07,-8.21485158528475e-07,5.61146661353722e-06,1.25409008028301e-06,2.91896787710965e-06,4.00947841382647e-07,1.81074487012682e-06,-8.88718237855659e-07,-3.44823418626356e-07,-7.63752514498719e-07,-1.41105809147598e-07,-3.04555112891423e-07,-5.73172306142401e-06,4.35334031583233e-06,-9.47764297070479e-07,2.79879557303787e-06,-3.0558276842537e-07,-1.47437030315901e-06,3.70118371262751e-06,-3.62385080490388e-06,1.19628344352399e-06,4.59629778286587e-08,2.01171676061408e-06,1.77184898962463e-07,2.04862682813747e-06,-3.8641611529916e-07,6.44306966383827e-06,2.80167724847769e-07,3.75742011433886e-06,1.3546507416456e-06,1.84128290673581e-06,2.67993788542535e-07,4.12024029266448e-06,-5.85549595237731e-07,2.11178753953399e-06,-7.42168308651132e-07,-3.40061399022353e-07,-2.75863668765704e-06,2.382308922772e-06,-1.23394014358801e-07,1.39717253106489e-06,8.00101682933962e-07,1.48230649976213e-06,9.65698437255541e-07,1.8655997702063e-06,1.61923298330026e-06,3.12817712281394e-06,9.7067147720613e-07,1.06823029736293e-05,-3.01416180367876e-05,3.23408639720841e-06,9.52699937728915e-07,1.41688734470141e-06,-5.14287918683958e-07,1.1822891731072e-06,-4.5122240974583e-07,4.09624431027835e-06,-3.09073399950181e-06,7.0911901877528e-06,-2.27499142771481e-06
-8.49361428127439e-07,-8.96436535440226e-07,7.2620290480762e-07,8.35848536079078e-08,-4.12949293930225e-06,-2.8427070630391e-07,1.57910714574607e-06,1.17439763901112e-07,6.59491933590629e-07,-9.01315688075039e-07,4.93757553244239e-06,-9.04090169524137e-07,1.60156226932014e-07,-8.23821953824901e-07,5.58715293371848e-06,1.27045366342361e-06,2.82843770291981e-06,4.25605562282141e-07,1.83249365835354e-06,-9.1367255137984e-07,-3.48427029297728e-07,-7.40342653505919e-07,-7.64806630551128e-08,-4.28447879161569e-07,-5.75978903894631e-06,4.38030772709024e-06,-1.1900210606493e-06,2.92199374576989e-06,-2.78402441258331e-07,-1.4675940360224e-06,3.72844138306017e-06,-3.60455218352802e-06,1.14912345938186e-06,3.70302273198061e-08,1.96997783277325e-06,1.19069109534085e-07,1.94283587439958e-06,-4.11979542950238e-07,6.25630244054839e-06,2.38450848627958e-07,3.65537362358324e-06,1.33396422543181e-06,1.78103545613799e-06,2.72088287145778e-07,3.81477620106245e-06,-4.29949899764851e-07,2.02493280107192e-06,-7.30493148139277e-07,-4.88730061694406e-07,-2.62813175247294e-06,2.26393402051418e-06,-6.03041741932006e-08,1.29893423674031e-06,7.9560709271867e-07,1.42081173138859e-06,9.40762105747971e-07,1.76275867315083e-06,1.61020744079859e-06,2.96047924555868e-06,9.58297115699102e-07,9.05017106598934e-06,-2.60317313481157e-05,3.17301402106283e-06,9.26524790884455e-07,1.37213407794086e-06,-5.13094562585412e-07,1.15466297442707e-06,-4.56658099251724e-07,3.89342770660209e-06,-3.04403272494751e-06,6.8952895624949e-06,-2.2153126902676e-06
-8.72847390851188e-07,-8.53380970432284e-07,7.23761857773583e-07,9.03929603677122e-08,-4.20902963433278e-06,-2.77298502304727e-07,1.52919788307461e-06,1.03588892609272e-07,6.16232491273143e-07,-9.25831137447904e-07,4.76062037891955e-06,-9.24412952700227e-07,1.80777820011336e-07,-8.26148171792077e-07,5.55057500984364e-06,1.28456463877726e-06,2.73141527987056e-06,4.49582114289902e-07,1.84797645884927e-06,-9.35934331557063e-07,-3.5888474578622e-07,-7.15900166380012e-07,-2.31821298961713e-08,-5.5116721910944e-07,-5.79151042773374e-06,4.40565200177525e-06,-1.45138405828049e-06,3.05883475824904e-06,-2.56847508366251e-07,-1.46084240203903e-06,3.74359124133803e-06,-3.5782339681293e-06,1.09658370393487e-06,2.73288768241979e-08,1.92027588634222e-06,6.01231609340364e-08,1.83163843669385e-06,-4.37271475030751e-07,6.05272874199153e-06,1.96881040625704e-07,3.54582456680154e-06,1.31230712288194e-06,1.71305650305291e-06,2.76595200743627e-07,3.50708141360353e-06,-2.77668038357628e-07,1.93203444759549e-06,-7.19070032771763e-07,-6.43866807662861e-07,-2.49600373665524e-06,2.13887421105954e-06,3.68737679720413e-09,1.19878271195565e-06,7.89944850413568e-07,1.3569516108267e-06,9.1583045859196e-07,1.65281141521728e-06,1.60172951494088e-06,2.78517280785707e-06,9.45987277652567e-07,7.40430217290461e-06,-2.19134048090794e-05,3.10251185104933e-06,8.99854373822867e-07,1.31962765623463e-06,-5.12178437323151e-07,1.12075935954372e-06,-4.62005526292757e-07,3.68178258092614e-06,-2.99727107270082e-06,6.67771171027345e-06,-2.1550590923498e-06
-9.03799285624922e-07,-8.08890164031523e-07,7.16093501183895e-07,9.77376574611263e-08,-4.2981245349848e-06,-2.70301524229923e-07,1.47082602051141e-06,8.98116493727154e-08,5.67328824249587e-07,-9.49293977785495e-07,4.57358327811482e-06,-9.44484362879968e-07,1.96232637393801e-07,-8.28458957465263e-07,5.50194102422399e-06,1.29651759334777e-06,2.62783820149915e-06,4.72836170455417e-07,1.85710810459992e-06,-9.55377512264053e-07,-3.76114023789049e-07,-6.90504796209872e-07,1.87446671242409e-08,-6.72427996019248e-07,-5.82680232790262e-06,4.42933734974424e-06,-1.73086158910259e-06,3.20874667427636e-06,-2.40980827880442e-07,-1.4541308510622e-06,3.74676066934659e-06,-3.54510808646737e-06,1.03877241009551e-06,1.69117659463673e-08,1.86279641102642e-06,5.97286740451368e-10,1.71518831206835e-06,-4.62241343621819e-07,5.83278294030627e-06,1.55525713956734e-07,3.42905561182913e-06,1.2897788544463e-06,1.63753251660949e-06,2.81458976979642e-07,3.19822126188225e-06,-1.29212675694129e-07,1.83327819415355e-06,-7.07899137282282e-07,-8.05197190870374e-07,-2.36243923432186e-06,2.00743933093051e-06,6.85128481003011e-08,1.09699145246518e-06,7.83121896471083e-07,1.29088363712911e-06,8.90970212158701e-07,1.53612062492987e-06,1.59380587601413e-06,2.60269208543262e-06,9.33782846104889e-07,5.74791045755441e-06,-1.7794202064312e-05,3.02268777292994e-06,8.72784013775106e-07,1.25934384008624e-06,-5.11529676240071e-07,1.08062345186659e-06,-4.67246308092759e-07,3.4617984678454e-06,-2.95048586932622e-06,6.43884386172004e-06,-2.09436385749902e-06
-9.42099715542321e-07,-7.63039724600436e-07,7.03209794879248e-07,1.05635843194656e-07,-4.39653431810854e-06,-2.63243410578445e-07,1.40416121968446e-06,7.6181919440721e-08,5.12933755832631e-07,-9.71656450550427e-07,4.37694430405328e-06,-9.64277362590867e-07,2.06489663956168e-07,-8.30747804483432e-07,5.44151195276039e-06,1.30641328851094e-06,2.51769139187133e-06,4.9533020150988e-07,1.85983065043107e-06,-9.7188206040101e-07,-3.99992330148011e-07,-6.64240293307095e-07,4.9326067212177e-08,-7.91956170934632e-07,-5.86555158608658e-06,4.45132816657594e-06,-2.02735755425936e-06,3.37107841271593e-06,-2.30818508838788e-07,-1.44746996813329e-06,3.73813535512437e-06,-3.50540555159477e-06,9.75831098071479e-07,5.83496834569502e-09,1.7977666929291e-06,-5.92562356575343e-08,1.59366759874152e-06,-4.86840835900153e-07,5.59699152638862e-06,1.14451328147398e-07,3.30538519831578e-06,1.26647656613854e-06,1.5546987796417e-06,2.86616246871708e-07,2.88924465345714e-06,1.49473247008677e-08,1.72888494873228e-06,-6.96976836335587e-07,-9.72386608072655e-07,-2.227621039848e-06,1.86997554898137e-06,1.34102002345608e-07,9.93843835680274e-07,7.75147426909993e-07,1.2227763887576e-06,8.66243923477676e-07,1.41308706874106e-06,1.58643346169228e-06,2.41350995835191e-06,9.21721264221703e-07,4.08433543705166e-06,-1.36816673893466e-05,2.93370260695368e-06,8.45410352509115e-07,1.19130890865599e-06,-5.11135204776839e-07,1.03433850416856e-06,-4.72360955056418e-07,3.23401391650548e-06,-2.9037142598006e-06,6.17918426302772e-06,-2.03335052693034e-06
-9.8758188077095e-07,-7.15912200956884e-07,6.85154842927408e-07,1.14099462426479e-07,-4.50395637623672e-06,-2.56088210104731e-07,1.32942036341568e-06,6.27712505680926e-08,4.53240923993571e-07,-9.92875210418476e-07,4.17125665513372e-06,-9.8376473904395e-07,2.11556446133167e-07,-8.33006592071715e-07,5.36960044458886e-06,1.31435787120416e-06,2.40100899294103e-06,5.17030840103947e-07,1.85611451327668e-06,-9.85335057005731e-07,-4.30357304092766e-07,-6.37194117091096e-07,6.86604058462334e-08,-9.09489929294905e-07,-5.90761682428496e-06,4.4715889715026e-06,-2.33967820346448e-06,3.54510544697831e-06,-2.26329090369292e-07,-1.4408653433535e-06,3.71795914872279e-06,-3.45937596427237e-06,9.07934398692416e-07,-5.84247338373714e-09,1.72545521419268e-06,-1.19184477014634e-07,1.46728661693924e-06,-5.11023993692712e-07,5.34597214887717e-06,7.37233562676775e-08,3.175166296279e-06,1.24249507971396e-06,1.4648384348885e-06,2.91996552771627e-07,2.58117870974168e-06,1.54386170145898e-07,1.61911043914979e-06,-6.86295810972391e-07,-1.14504092585598e-06,-2.09172786977596e-06,1.72686370610703e-06,2.00382887643001e-07,8.89632040600314e-07,7.66033019103332e-07,1.15280899364805e-06,8.41709780574737e-07,1.28414811848783e-06,1.57959969564196e-06,2.21813620976497e-06,9.09836420025981e-07,2.41703314568784e-06,-9.58330463854608e-06,2.83577014228284e-06,8.17830752837218e-07,1.11560045329443e-06,-5.10978917791358e-07,9.82026021198335e-07,-4.77329021182116e-07,2.99901471891798e-06,-2.85699354890976e-06,5.89934153644405e-06,-1.97213270436539e-06
-1.04003004058856e-06,-6.675968641707e-07,6.62005253140757e-07,1.23135399806228e-07,-4.62003092211719e-06,-2.48800766126965e-07,1.24686702439116e-06,4.96484718453315e-08,3.88484116478836e-07,-1.01291148447852e-06,3.95714464919702e-06,-1.00291915520654e-06,2.11479554912515e-07,-8.35225622282309e-07,5.28656944472191e-06,1.32046207495467e-06,2.27787588226582e-06,5.37909209152522e-07,1.84595952278208e-06,-9.95631839678158e-07,-4.67007151091026e-07,-6.0945711275318e-07,7.69181222006276e-08,-1.02478071868071e-06,-5.95282862082491e-06,4.49008437570127e-06,-2.66653904550426e-06,3.73003550523546e-06,-2.27433043284102e-07,-1.43431750684777e-06,3.68653365288698e-06,-3.40728696240185e-06,8.35289681158827e-07,-1.8058826139873e-08,1.64617085519438e-06,-1.78935233146469e-07,1.33628364782787e-06,-5.34747288787399e-07,5.08043208000353e-06,3.34062391282207e-08,3.03878498055178e-06,1.2179268774185e-06,1.3682812296682e-06,2.97523144566534e-07,2.27502366295054e-06,2.88724028831739e-07,1.50424463611394e-06,-6.75845187737389e-07,-1.32270754861259e-06,-1.95493410146029e-06,1.57851747418484e-06,2.67282528657975e-07,7.84655890265002e-07,7.55792774054192e-07,1.08117054469864e-06,8.17421417292055e-07,1.14977600234294e-06,1.5732827702017e-06,2.01711557388385e-06,8.98158553857585e-07,7.49565275269354e-07,-5.5065549295049e-06,2.7291568253769e-06,7.90142662974693e-07,1.03234783955303e-06,-5.11041900821017e-07,9.23845637419766e-07,-4.82129269932463e-07,2.75743190736239e-06,-2.81036104977793e-06,5.60003339848585e-06,-1.91081390726041e-06
-1.09918026051863e-06,-6.18189441892916e-07,6.33870370508704e-07,1.32745460959831e-07,-4.74434342615347e-06,-2.41347079868033e-07,1.15681068688737e-06,3.68793546235005e-08,3.18936331735976e-07,-1.03173119616944e-06,3.7353011756705e-06,-1.02171321690836e-06,2.06344799527629e-07,-8.37393656369458e-07,5.19283058376604e-06,1.32484042272271e-06,2.14842879077833e-06,5.57941206607647e-07,1.82939585866473e-06,-1.00267717961938e-06,-5.09701268878852e-07,-5.81123165838884e-07,7.43414249641088e-08,-1.13759418474689e-06,-6.00098984864383e-06,4.50677908993658e-06,-3.00657195006974e-06,3.92501430366801e-06,-2.34002596387213e-07,-1.42782192856996e-06,3.64421748403277e-06,-3.34942353001442e-06,7.5813648437147e-07,-3.07499579402322e-08,1.56026191391898e-06,-2.38258397164147e-07,1.20092448845759e-06,-5.57969673817831e-07,4.80116610647808e-06,-6.43667425745133e-09,2.89665882819914e-06,1.19286211745283e-06,1.26540197010774e-06,3.03113817962617e-07,1.97174799472661e-06,4.17629558480864e-07,1.38461097376035e-06,-6.65610711367246e-07,-1.50487692003528e-06,-1.81740951813896e-06,1.42538133646942e-06,3.34727583912385e-07,6.79221628679206e-07,7.44443456489238e-07,1.00805946116424e-06,7.93427755340221e-07,1.01047584223839e-06,1.56745198576296e-06,1.81102553785331e-06,8.86714186901e-07,-9.14413788663531e-07,-1.45877303083187e-06,2.61418109891243e-06,7.62442939057037e-07,9.41732326747211e-07,-5.11302695544074e-07,8.5999474559314e-07,-4.86739855333117e-07,2.50993952868185e-06,-2.76385394838984e-06,5.2820847276083e-06,-1.8494875210645e-06
-1.16472143003509e-06,-5.67791800804056e-07,6.00892399160317e-07,1.42926450087811e-07,-4.87642734505728e-06,-2.33694645016822e-07,1.05960572756463e-06,2.45263188572407e-08,2.4490857226879e-07,-1.04930505200819e-06,3.50648460779137e-06,-1.04011956113855e-06,1.96277186245383e-07,-8.39497949285086e-07,5.08884235163338e-06,1.32761044248417e-06,2.01285699763488e-06,5.77107742332107e-07,1.80648484499618e-06,-1.00638645845205e-06,-5.58161107591034e-07,-5.52288837649835e-07,6.124350598605e-08,-1.24771100443912e-06,-6.05187618015417e-06,4.52163798372559e-06,-3.35833258749538e-06,4.12913149195225e-06,-2.45861893043187e-07,-1.42136908006716e-06,3.59142514115601e-06,-3.28608709578619e-06,6.76745748575622e-07,-4.38496413636146e-08,1.46811493862356e-06,-2.96907322214281e-07,1.06150182192308e-06,-5.80652611298552e-07,4.50905384204225e-06,-4.57432016129568e-08,2.74923514071755e-06,1.16738867720294e-06,1.15661868930917e-06,3.08681781558503e-07,1.67228379528147e-06,5.40822105936336e-07,1.26056536601401e-06,-6.5557494999844e-07,-1.69098444930971e-06,-1.67931905920291e-06,1.26792838306569e-06,4.02644986556172e-07,5.73640650355875e-07,7.32004606905009e-07,9.33682796055064e-07,7.69772875603107e-07,8.66783478285376e-07,1.56206813836206e-06,1.6004739041537e-06,8.7552606876568e-07,-2.57117204601859e-06,2.55279739384483e-06,2.49121238940139e-06,7.34827129022922e-07,8.43986832843345e-07,-5.11737606683516e-07,7.90707872624227e-07,-4.91138517401007e-07,2.25725219216342e-06,-2.717509183027e-06,4.94642496907201e-06,-1.7882368491759e-06
-1.23629654565649e-06,-5.16511575741991e-07,5.63246412343698e-07,1.53670344435411e-07,-5.0157671115812e-06,-2.25812748836348e-07,9.556501531269e-07,1.26481850873002e-08,1.66748376655804e-07,-1.06560859068108e-06,3.27151518496382e-06,-1.0581109660571e-06,1.81440615233781e-07,-8.41524282192083e-07,4.9751080649514e-06,1.32889190437084e-06,1.87140259211585e-06,5.95394926548853e-07,1.77731956538128e-06,-1.00668680177548e-06,-6.12071266251788e-07,-5.23052983974917e-07,3.80073024132342e-08,-1.35492762832648e-06,-6.10523676934154e-06,4.53462620675097e-06,-3.7203083751453e-06,4.34142699650139e-06,-2.62787486672291e-07,-1.41494455315689e-06,3.52862544331982e-06,-3.21759439763288e-06,5.91418843381593e-07,-5.72898662640939e-08,1.37015335939266e-06,-3.54640158237823e-07,9.18334403373713e-07,-6.02760084499607e-07,4.20505645966975e-06,-8.44524213184284e-08,2.59698899017892e-06,1.14159222383412e-06,1.04239054034979e-06,3.14136540118957e-07,1.37752235558623e-06,6.58073578817048e-07,1.13249501740089e-06,-6.457175307057e-07,-1.88041285434916e-06,-1.540822580635e-06,1.10665792203731e-06,4.70962578648078e-07,4.68228204616436e-07,7.18498599863136e-07,8.58255490460533e-07,7.46495919637072e-07,7.19263084112678e-07,1.55708394815865e-06,1.38609612556347e-06,8.64613142342335e-07,-4.2169168632455e-06,6.52104922197498e-06,2.36066974255464e-06,7.07388728916115e-07,7.39395336019725e-07,-5.12321045935126e-07,7.16255801628225e-07,-4.95302790275116e-07,2.00012238541011e-06,-2.67136333157806e-06,4.5940848692575e-06,-1.72713524939259e-06
-1.31350426244283e-06,-4.64461749054695e-07,5.21140232337716e-07,1.64964556207685e-07,-5.16180135915206e-06,-2.1767273869876e-07,8.45384087924569e-07,1.29996956852241e-09,8.48380963955747e-08,-1.08062219561607e-06,3.03127088828025e-06,-1.07566047686228e-06,1.62037309582727e-07,-8.43456994543061e-07,4.85217363370894e-06,1.32880608551337e-06,1.72436030685225e-06,6.12794211922104e-07,1.74202526494084e-06,-1.00351812687858e-06,-6.71080825518889e-07,-4.93516359198972e-07,5.08382138820921e-09,-1.45905695161672e-06,-6.16079511728776e-06,4.54570937637222e-06,-4.09092701644537e-06,4.56089783219832e-06,-2.84509181971431e-07,-1.40852923047358e-06,3.45633953240779e-06,-3.14427615080273e-06,5.02486390233656e-07,-7.10011583326648e-08,1.26683590520407e-06,-4.11221144984158e-07,7.71766063995434e-07,-6.24258592443179e-07,3.89021284688127e-06,-1.2250479028165e-07,2.44042109091656e-06,1.11555631319771e-06,9.23215441232334e-07,3.19384772358842e-07,1.08831004331237e-06,7.69209941584404e-07,1.00081702977015e-06,-6.36015402407945e-07,-2.07249491442116e-06,-1.40207463219019e-06,9.42092923694851e-07,5.39609729356678e-07,3.63302094235841e-07,7.03950632682422e-07,7.81999576804788e-07,7.23631021586801e-07,5.68504582732406e-07,1.55244452370898e-06,1.16855243014847e-06,8.53990524641809e-07,-5.84781343357031e-06,1.04390373289418e-05,2.22302010783809e-06,6.80218429857013e-07,6.28291910607161e-07,-5.13025906700753e-07,6.36944442641124e-07,-4.99210220885374e-07,1.73933755945325e-06,-2.62545250054266e-06,4.22619254321547e-06,-1.66624634902637e-06
-1.39590072060211e-06,-4.11760187260052e-07,4.74814148146304e-07,1.76792264540422e-07,-5.31392635551511e-06,-2.09248255536714e-07,7.29288003414992e-07,-9.4672814913577e-09,-4.07076980255635e-10,-1.09433107304169e-06,2.78668284304337e-06,-1.09274153746508e-06,1.3830697223808e-07,-8.45279018882708e-07,4.72062512999679e-06,1.32747506614919e-06,1.57207693499485e-06,6.29302492058628e-07,1.70075951482698e-06,-9.96834071598867e-07,-7.34804914080325e-07,-4.63781207127751e-07,-3.70099539549238e-08,-1.55992893133457e-06,-6.21825012151554e-06,4.55485382884344e-06,-4.46856560347633e-06,4.78650532939675e-06,-3.10711222694512e-07,-1.402099504801e-06,3.37513846996935e-06,-3.06647560127583e-06,4.10306880392848e-07,-8.4912899802857e-08,1.15865479759838e-06,-4.66421848480257e-07,6.22164535948387e-07,-6.4511712944711e-07,3.56563519458371e-06,-1.59842290428134e-07,2.28005550516921e-06,1.08936251442388e-06,7.99627505997892e-07,3.24331182912834e-07,8.05444527303849e-07,8.74112260340785e-07,8.65976807995412e-07,-6.264431221485e-07,-2.26651662030449e-06,-1.26322425829873e-06,7.7477732645765e-07,6.08517912543674e-07,2.59181378581508e-07,6.88388643463806e-07,7.05143332734247e-07,7.01207270752846e-07,4.15120873716934e-07,1.54808785917049e-06,9.48524754435658e-07,8.4366950230112e-07,-7.46000425789533e-06,1.43000034710364e-05,2.07877627748164e-06,6.53403375113718e-07,5.11059399007497e-07,-5.13823960464706e-07,5.53113456645106e-07,-5.02838595735355e-07,1.47571699301355e-06,-2.57981221529213e-06,3.84396888896334e-06,-1.60562433284134e-06
-1.48300165446457e-06,-3.58529142407971e-07,4.24540430878535e-07,1.8913279647385e-07,-5.47149962389384e-06,-2.0051543666237e-07,6.07880682020925e-07,-1.96066227433817e-08,-8.85413306752005e-08,-1.10672519734106e-06,2.53873028303376e-06,-1.10932811866629e-06,1.10525667332686e-07,-8.46971922317171e-07,4.58108615851616e-06,1.32502105863454e-06,1.41495034154377e-06,6.44922158048668e-07,1.65371212472921e-06,-9.86602783332705e-07,-8.02826505568368e-07,-4.3395083900316e-07,-8.76935702981446e-08,-1.65739115237169e-06,-6.27727730894662e-06,4.56202693220749e-06,-4.85156017510843e-06,5.01718265845667e-06,-3.41033821527938e-07,-1.39562754571594e-06,3.28564046855405e-06,-2.98454705060255e-06,3.15265091713531e-07,-9.89536493637621e-08,1.04613371316566e-06,-5.20022332398941e-07,4.69920101484041e-07,-6.65307149735669e-07,3.23250403520041e-06,-1.96408606695839e-07,2.11643719859777e-06,1.06309055001752e-06,6.72194284151502e-07,3.2887932774974e-07,5.29671405811242e-07,9.72717226602488e-07,7.28446267054351e-07,-6.16973159761706e-07,-2.46172070273209e-06,-1.12441483153368e-06,6.05273228551299e-07,6.77621221516753e-07,1.56185080956034e-07,6.71843168569553e-07,6.27920385853721e-07,6.79248705463955e-07,2.59744878731522e-07,1.54394536387917e-06,7.26713499355816e-07,8.33657539841082e-07,-9.04962931753397e-06,1.80974002665073e-05,1.92849448927042e-06,6.27026442151384e-07,3.88127721238605e-07,-5.14686263137795e-07,4.65134638168953e-07,-5.06166173291916e-07,1.21010844831305e-06,-2.53447731499735e-06,3.4487223652468e-06,-1.54531429765933e-06
-1.57428478917795e-06,-3.04894723903494e-07,3.70622605091397e-07,2.01962036051543e-07,-5.63384373810224e-06,-1.91453090306889e-07,4.81716910319518e-07,-2.90753087507917e-08,-1.79090691662353e-07,-1.11779922481673e-06,2.28843510457907e-06,-1.12539483834488e-06,7.90044235012267e-08,-8.48515958350888e-07,4.43421502638725e-06,1.3215657699602e-06,1.25342806941461e-06,6.59661112051288e-07,1.60110479635093e-06,-9.72807559838777e-07,-8.74698442868522e-07,-4.04129198829319e-07,-1.46326035156201e-07,-1.7513093240404e-06,-6.33753025559029e-06,4.56719746373956e-06,-5.23821558660891e-06,5.25184250558426e-06,-3.75075025775321e-07,-1.38908161123126e-06,3.18850778944743e-06,-2.89885441282139e-06,2.17770309123688e-07,-1.13051459842286e-07,9.29825507451384e-07,-5.71812258154976e-07,3.15444070159152e-07,-6.84802519274088e-07,2.89206274911437e-06,-2.32149337041965e-07,1.95012946618749e-06,1.03681843555721e-06,5.41513810430834e-07,3.32932433166867e-07,2.61681273503464e-07,1.06501711956405e-06,5.8872184263725e-07,-6.07576215474963e-07,-2.65731051389361e-06,-9.85783929228826e-07,4.34157978403676e-07,7.46856813930181e-07,5.46308945446362e-08,6.54347153450003e-07,5.50568768696246e-07,6.57774339273795e-07,1.03026410846361e-07,1.5399424260509e-06,5.03834121240415e-07,8.23958298597306e-07,-1.06128467677396e-05,2.18249142227733e-05,1.77277170579233e-06,6.01165559860275e-07,2.59971824238499e-07,-5.15583560058219e-07,3.73410062677645e-07,-5.09171919372162e-07,9.43384626469614e-07,-2.48948185267003e-06,3.04184315174519e-06,-1.48535266583764e-06
-1.66919252388707e-06,-2.50986344920347e-07,3.13394439451356e-07,2.15252843131675e-07,-5.80025028111925e-06,-1.82042843758664e-07,3.51384901563838e-07,-3.78348631205781e-08,-2.71555722790034e-07,-1.12755237693445e-06,2.03685603379572e-06,-1.14091707452878e-06,4.40875601976561e-08,-8.49890131891048e-07,4.28070171152742e-06,1.31722979801122e-06,1.08800553335643e-06,6.73532734247285e-07,1.5431905226463e-06,-9.55447350464803e-07,-9.49945684663548e-07,-3.74420416700309e-07,-2.12209195910946e-07,-1.84156767629748e-06,-6.39864219505664e-06,4.57033605545367e-06,-5.62681552667399e-06,5.48938472674041e-06,-4.1239291284851e-07,-1.38242639940436e-06,3.08444333026293e-06,-2.80976984180414e-06,1.1825435586653e-07,-1.27134193372564e-07,8.10309698572131e-07,-6.21591911601153e-07,1.59167090088006e-07,-7.03579457976694e-07,2.54561156118832e-06,-2.67012232718474e-07,1.78171125044263e-06,1.0106226029127e-06,4.0821145508242e-07,3.36394233504744e-07,2.10723770274728e-09,1.15105920357712e-06,4.47322309574917e-07,-5.98221544846901e-07,-2.85245423629223e-06,-8.47463262454311e-07,2.62021172553125e-07,8.16165291845759e-07,-4.51661184565534e-08,6.3593573020365e-07,4.73329924014461e-07,6.36798220543781e-07,-5.43711213582729e-08,1.53599901326006e-06,2.80613572749594e-07,8.14571665380318e-07,-1.21458540446964e-05,2.54764878580297e-05,1.61224258517875e-06,5.75893070742619e-07,1.27109278013535e-07,-5.16486681439296e-07,2.78370007748679e-07,-5.11835742642734e-07,6.76439426783739e-07,-2.44485899484254e-06,2.62479671976273e-06,-1.4257676507535e-06
-1.7671348889023e-06,-1.96936146352295e-07,2.53218631907313e-07,2.28975467469342e-07,-5.96998395051161e-06,-1.72269265926537e-07,2.17503453631178e-07,-4.58511186517037e-08,-3.65414440368202e-07,-1.13598829511799e-06,1.78508243350045e-06,-1.15587107463916e-06,6.15074267194783e-09,-8.51072279268554e-07,4.12126463373606e-06,1.31213206171326e-06,9.19223795988947e-07,6.86555798604339e-07,1.48025275437711e-06,-9.3453714525561e-07,-1.02806776535348e-06,-3.44928351575474e-07,-2.84591577434993e-07,-1.92806923080379e-06,-6.46022780902101e-06,4.57141570259237e-06,-6.01563250063592e-06,5.72870379294619e-06,-4.52508109119195e-07,-1.37562343322104e-06,2.97418693291829e-06,-2.71767246205436e-06,1.71694451707845e-08,-1.4112983391529e-07,6.88189719906557e-07,-6.69173161371026e-07,1.53730171736862e-09,-7.21616474951417e-07,2.19450105250411e-06,-3.00947465378057e-07,1.6117743739473e-06,9.84577993769562e-07,2.7293656502932e-07,3.39169845276827e-07,-2.4847713608385e-07,1.23094459582099e-06,3.04786415489526e-07,-5.88877285258017e-07,-3.04628939849198e-06,-7.0957866210361e-07,8.94615772797344e-08,8.85491020465794e-07,-1.42894838276513e-07,6.1664597440771e-07,3.96447661596775e-07,6.1632952599582e-07,-2.11774154828195e-07,1.53203031042729e-06,5.77866137473895e-08,8.0549379192219e-07,-1.36449092340177e-05,2.90463408454198e-05,1.44757615965538e-06,5.51275150663595e-07,-9.90246628769988e-09,-5.17366923319787e-07,1.80470660475849e-07,-5.14138726940881e-07,4.10184017473021e-07,-2.40064091446405e-06,2.1991168552984e-06,-1.36657977194038e-06
-1.86749275439029e-06,-1.42878400147725e-07,1.90485180502056e-07,2.43097948740043e-07,-6.14228678526984e-06,-1.62119963571871e-07,8.07188519329882e-08,-5.30942295179927e-08,-4.60125434702654e-07,-1.1431148707113e-06,1.53422778394064e-06,-1.17023406250118e-06,-3.44012260632565e-08,-8.52039164488753e-07,3.95664723676636e-06,1.30638926513542e-06,7.47666928348007e-07,6.98754334650454e-07,1.41260436568443e-06,-9.10108288868004e-07,-1.10854145690625e-06,-3.15756124845507e-07,-3.62672664166191e-07,-2.01073594061673e-06,-6.52188518314494e-06,4.57041231841452e-06,-6.40293759219841e-06,5.96869586175738e-06,-4.94906623631412e-07,-1.36863147347775e-06,2.85851145626199e-06,-2.62294723089453e-06,-8.50141359943339e-08,-1.5496679650008e-07,5.64089961882166e-07,-7.14380360502799e-07,-1.56981656207976e-07,-7.3889429832873e-07,1.84012521640463e-06,-3.3390791681414e-07,1.44092070759759e-06,9.58758112945643e-07,1.36358893751169e-07,3.41166686681306e-07,-4.89559503654031e-07,1.30482667678955e-06,1.61670339040054e-07,-5.79510778282574e-07,-3.23792768462089e-06,-5.72250122502584e-07,-8.29160020421368e-08,9.54782380024489e-07,-2.38249412989254e-07,5.9651665297298e-07,3.20167068149722e-07,5.96372687911778e-07,-3.68502532961289e-07,1.52794739226996e-06,-1.63907984354434e-07,7.96717148002679e-07,-1.51063524890709e-05,3.25289899295809e-05,1.27947223814354e-06,5.27371301236227e-07,-1.5046913471777e-07,-5.18196411013357e-07,8.01916255869427e-08,-5.16063356863534e-07,1.45542732975181e-07,-2.35685867558543e-06,1.76639818501995e-06,-1.30780242162496e-06
-1.96962126547266e-06,-8.89488932291509e-08,1.25609446205469e-07,2.57586498353987e-07,-6.31638248583278e-06,-1.51585649545559e-07,-5.82984730303536e-08,-5.95386573913047e-08,-5.55131174009575e-07,-1.14894405507404e-06,1.28542287705003e-06,-1.18398434098978e-06,-7.71368676245886e-08,-8.52766592514155e-07,3.78761439165303e-06,1.30011539570277e-06,5.73958966275659e-07,7.10157435520873e-07,1.34058644478314e-06,-8.82208749532049e-07,-1.19082362049933e-06,-2.8700564524795e-07,-4.45607594019801e-07,-2.08950870735615e-06,-6.58319791052327e-06,4.56730531438063e-06,-6.78700983117529e-06,6.20826535325999e-06,-5.39042985650888e-07,-1.36140695751075e-06,2.73821865908964e-06,-2.52598394160255e-06,-1.87810498159253e-07,-1.68574232302379e-07,4.3865262959469e-07,-7.57051204575409e-07,-3.15912779172787e-07,-7.55395800360976e-07,1.48391409278375e-06,-3.65849487472614e-07,1.26975929270389e-06,9.3323503458858e-07,-8.35169900508094e-10,3.42295441482229e-07,-7.20690124982371e-07,1.37290914258652e-06,1.85449835009291e-08,-5.70088883313476e-07,-3.42646002921682e-06,-4.35591900843717e-07,-2.54503883411336e-07,1.02399194366174e-06,-3.30930601941394e-07,5.75587973661104e-07,2.44733372137484e-07,5.76927553775774e-07,-5.23873161038559e-07,1.52365792468366e-06,-3.83731315549292e-07,7.88230592258491e-07,-1.65266273249001e-05,3.59192673626835e-05,1.10865754883588e-06,5.04233929586824e-07,-2.93962980299421e-07,-5.18948443434755e-07,-2.19667505877514e-08,-5.17593733259437e-07,-1.16551181283029e-07,-2.31354211304135e-06,1.32828825530092e-06,-1.24944248445091e-06
-2.07285348160068e-06,-3.52842938711154e-08,5.90299253185333e-08,2.72405862572508e-07,-6.49148080043313e-06,-1.40660181931559e-07,-1.98857522906686e-07,-6.51631344336911e-08,-6.49861472552345e-07,-1.15349165541459e-06,1.03980876563315e-06,-1.19710138600503e-06,-1.21600735074799e-07,-8.53229539888181e-07,3.61494863421281e-06,1.29342125707641e-06,3.9876047976898e-07,7.20799014535453e-07,1.26456692057242e-06,-8.5090335594597e-07,-1.27435423478023e-06,-2.58777125238e-07,-5.32512228163949e-07,-2.1643472857553e-06,-6.6437373301888e-06,4.56207818991143e-06,-7.16614503397152e-06,6.44633095012403e-06,-5.84343672662587e-07,-1.35390446353591e-06,2.61413492694631e-06,-2.4271763555222e-06,-2.90720760720612e-07,-1.81882329208973e-07,3.12534448298209e-07,-7.97037557159291e-07,-4.74767957969959e-07,-7.71105918325985e-07,1.12732602158328e-06,-3.96731420436997e-07,1.09890343112092e-06,9.08079360113671e-07,-1.37946547148271e-07,3.42471050489554e-07,-9.4148302438892e-07,1.4354437954796e-06,-1.24006880679194e-07,-5.60578279788146e-07,-3.61096198757783e-06,-2.99712670301498e-07,-4.24694694078412e-07,1.09307658585231e-06,-4.20647140961788e-07,5.5390134697511e-07,1.70390767567636e-07,5.57989576620643e-07,-6.77203730672183e-07,1.51906689034241e-06,-6.00948269423672e-07,7.80019464834639e-07,-1.79023017488999e-05,3.92123378123893e-05,9.35881639992564e-07,4.81908026223172e-07,-4.3972639764227e-07,-5.19597817953435e-07,-1.25486224080009e-07,-5.18715775939055e-07,-3.75159952299981e-07,-2.2707197110354e-06,8.86479212981616e-07,-1.19150100958466e-06
-2.176504199312e-06,1.79784955470637e-08,-8.79424439975355e-09,2.87519667713088e-07,-6.66678194713934e-06,-1.29340574095118e-07,-3.40250528019834e-07,-6.99506066375779e-08,-7.43737102110153e-07,-1.15677712161983e-06,7.98529509995667e-07,-1.20956592835008e-06,-1.67316350023517e-07,-8.5340230226768e-07,3.43944625490448e-06,1.28641403773789e-06,2.22764775325781e-07,7.30717512409895e-07,1.18493902304651e-06,-8.1627399681e-07,-1.35855958481413e-06,-2.31168589096155e-07,-6.22468564807001e-07,-2.23523007809793e-06,-6.70306489214826e-06,4.55471912295961e-06,-7.53866404669599e-06,6.68183098464557e-06,-6.30210812437071e-07,-1.34607719981598e-06,2.4871068654443e-06,-2.32692143896107e-06,-3.93235785338238e-07,-1.94822608684451e-07,1.86403254318502e-07,-8.34206251056126e-07,-6.33050354988285e-07,-7.86011572463759e-07,7.71839565355367e-07,-4.26516636830307e-07,9.28967756909266e-07,8.83360131305133e-07,-2.74267547472444e-07,3.41613698249473e-07,-1.1516169667967e-06,1.49272813424896e-06,-2.65393606275542e-07,-5.50945757428655e-07,-3.79049936346341e-06,-1.64715724553047e-07,-5.928845789045e-07,1.16199754078874e-06,-5.07117130592469e-07,5.31499172589283e-07,9.73812043396327e-08,5.39550034168979e-07,-8.278164855047e-07,1.51407733636539e-06,-8.14831482544068e-07,7.72065705183085e-07,-1.92300893061912e-05,4.24037139041688e-05,7.61912563216438e-07,4.60430944464799e-07,-5.8707577480647e-07,-5.20121135678474e-07,-2.29833646754156e-07,-5.19417411725775e-07,-6.29345763172409e-07,-2.22841848379045e-06,4.42699141536162e-07,-1.13397393284678e-06
-2.27987393383492e-06,7.07029934465191e-08,-7.73860169688517e-08,3.02890747673924e-07,-6.84148103213189e-06,-1.17626976305249e-07,-4.8175694075967e-07,-7.38881608549406e-08,-8.36173522435761e-07,-1.15882332800933e-06,5.62724766907547e-07,-1.22136002232592e-06,-2.13789351280728e-07,-8.53258657589438e-07,3.26191326428778e-06,1.27919691637199e-06,4.66937528845949e-08,7.39955556012218e-07,1.10211956923709e-06,-7.78419764459833e-07,-1.44285559310769e-06,-2.04275373394849e-07,-7.14530465369922e-07,-2.30215381783444e-06,-6.76073463927023e-06,4.54522155586586e-06,-7.90292040290297e-06,6.91372824006792e-06,-6.76026138744396e-07,-1.33787751590916e-06,2.35799677901824e-06,-2.22561867037523e-06,-4.9483901083255e-07,-2.07328220436766e-07,6.09345093707064e-08,-8.68439871563676e-07,-7.90256878360544e-07,-8.0010158304041e-07,4.18945158382541e-07,-4.55172076179133e-07,7.60565306572254e-07,8.59144701550326e-07,-4.09086034087796e-07,3.39649759719984e-07,-1.35083623864506e-06,1.54510275423751e-06,-4.05017771529837e-07,-5.41158495086325e-07,-3.96413406427859e-06,-3.06992304619374e-08,-7.58476426596644e-07,1.23072043302081e-06,-5.90069442876337e-07,5.08424661187368e-07,2.59431553603432e-08,5.21596275130105e-07,-9.7504200015829e-07,1.50859114299431e-06,-1.02466527795095e-06,7.64347997102151e-07,-2.05068701099399e-05,4.54892705862602e-05,5.87532369901442e-07,4.39832276914015e-07,-7.35305554497459e-07,-5.20497086492588e-07,-3.34464089032659e-07,-5.19688746412538e-07,-8.78175307454413e-07,-2.18666386119307e-06,-1.29688530533687e-09,-1.07685284662736e-06
-2.38225303138785e-06,1.22753795410215e-07,-1.46253384318982e-07,3.18481453025741e-07,-7.01477242166926e-06,-1.05522630246376e-07,-6.22647599014138e-07,-7.69669381800178e-08,-9.26584704416047e-07,-1.15965635209259e-06,3.33522267354712e-07,-1.2324671012616e-06,-2.60510834539968e-07,-8.52772043034843e-07,3.08316125822471e-06,1.27186870464296e-06,-1.28706560682003e-07,7.4855956894548e-07,1.01654706466902e-06,-7.37457018271075e-07,-1.52665127372218e-06,-1.78189620859523e-07,-8.07729656839946e-07,-2.36513314577831e-06,-6.81629579430014e-06,4.53358477164192e-06,-8.25730748075373e-06,7.14101426000872e-06,-7.21155176019827e-07,-1.32925743176738e-06,2.2276780425375e-06,-2.12366936009159e-06,-5.95009370029605e-07,-2.19334235431507e-07,-6.31922339233652e-08,-8.9963752165248e-07,-9.45880735555893e-07,-8.13366588709855e-07,7.01365429688145e-08,-4.82669032893624e-07,5.94304607661836e-07,8.35498564177682e-07,-5.41689641896598e-07,3.36512687074244e-07,-1.53895117613395e-06,1.59294851836506e-06,-5.42279373442374e-07,-5.31184328813561e-07,-4.13093014405794e-06,1.02243476490451e-07,-9.20883099846366e-07,1.29921529031177e-06,-6.69245133830863e-07,4.84721694699459e-07,-4.36896296093226e-08,5.04111991758135e-07,-1.11822294931464e-06,1.50250981088049e-06,-1.22974956366297e-06,7.56841942421715e-07,-2.17297117814913e-05,4.84652583319291e-05,4.13532454730203e-07,4.20133818852755e-07,-8.83692476549311e-07,-5.20706713517308e-07,-4.38824071525949e-07,-5.19522219112265e-07,-1.12072438838657e-06,-2.14547958101036e-06,-4.43735966957144e-07,-1.02012581453536e-06
-2.48292588489592e-06,1.73997227464279e-07,-2.14892510874528e-07,3.34253940511402e-07,-7.18585403185011e-06,-9.30337986046263e-08,-7.62189031972397e-07,-7.91820355404764e-08,-1.01438701998867e-06,-1.15930525094684e-06,1.12030229813392e-07,-1.24287202066785e-06,-3.06960862565863e-07,-8.51915743949738e-07,2.90400320454659e-06,1.26452352728073e-06,-3.02670779954537e-07,7.56579334541168e-07,9.28679611976013e-07,-6.93519345581816e-07,-1.60935229149366e-06,-1.52999769530881e-07,-9.01081970880237e-07,-2.42420008598923e-06,-6.86929544113439e-06,4.51981445705439e-06,-8.60026526215975e-06,7.36271327563609e-06,-7.64951624505486e-07,-1.32016918065457e-06,2.09703034915751e-06,-2.02147589529438e-06,-6.93224272803779e-07,-2.30777935406664e-07,-1.85296904376728e-07,-9.27715556841343e-07,-1.09941404975215e-06,-8.2579896780168e-07,-2.73097947358415e-07,-5.08983479289079e-07,4.30786803409758e-07,8.12485133824827e-07,-6.71370032866424e-07,3.32143843375907e-07,-1.71583836061296e-06,1.63668343433629e-06,-6.76579093308885e-07,-5.20992009246974e-07,-4.28995998860264e-06,2.34023561532447e-07,-1.07953064730457e-06,1.36745653074157e-06,-7.44398840446267e-07,4.60434716279469e-07,-1.11289375282474e-07,4.87077518587759e-07,-1.25671784941671e-06,1.49573526258664e-06,-1.42940366639105e-06,7.49520264351189e-07,-2.28958900250351e-05,5.13283149602086e-05,2.40708781173785e-07,4.01349605830664e-07,-1.03149997262591e-06,-5.20733658002579e-07,-5.42354885847097e-07,-5.18912737253115e-07,-1.3560825430413e-06,-2.10488758648509e-06,-8.82836694464966e-07,-9.63778223795346e-07
-2.58117522799767e-06,2.24301993407017e-07,-2.82791032887663e-07,3.50170441915484e-07,-7.35393150813646e-06,-8.01696723897061e-08,-8.99647880262604e-07,-8.05323968616956e-08,-1.09900317275432e-06,-1.15780183538172e-06,-1.00670240448358e-07,-1.25256109061884e-06,-3.5261212356903e-07,-8.50663093244794e-07,2.72524917184726e-06,1.25725053894083e-06,-4.74419208686109e-07,7.64067512507481e-07,8.38992624156399e-07,-6.46757404273034e-07,-1.69036460765385e-06,-1.28790040520106e-07,-9.93593779866219e-07,-2.47940342706491e-06,-6.91928129117215e-06,4.50392325008892e-06,-8.93028675141055e-06,7.57788581193112e-06,-8.06761914078236e-07,-1.31056576318511e-06,1.96693480711642e-06,-1.91944081817463e-06,-7.88962642502185e-07,-2.41599094891505e-07,-3.04702524447215e-07,-9.5260826333295e-07,-1.25035052348239e-06,-8.37392763972239e-07,-6.09284199184988e-07,-5.34096366390514e-07,2.70602825921913e-07,7.90165476991975e-07,-7.97427190128494e-07,3.26493312168098e-07,-1.88144041505108e-06,1.67675918839606e-06,-8.0732161621347e-07,-5.10551447995974e-07,-4.44031059310599e-06,3.64556332776063e-07,-1.23386146935976e-06,1.43542290356795e-06,-8.1530013681216e-07,4.35608633338776e-07,-1.76635530412616e-07,4.70470157496077e-07,-1.38990475554987e-06,1.48817065261139e-06,-1.62297007851247e-06,7.42353040451149e-07,-2.40029084150164e-05,5.40754757333692e-05,6.98570267758581e-08,3.83486011243591e-07,-1.17798268250328e-06,-5.20564385330692e-07,-6.44495984406965e-07,-5.17857790501569e-07,-1.58335767205661e-06,-2.06490792720842e-06,-1.3168185682742e-06,-9.07793661989485e-07
-2.67628648103025e-06,2.73539813848171e-07,-3.49431496885103e-07,3.66193511397807e-07,-7.51822226876565e-06,-6.69422585339136e-08,-1.03429540018842e-06,-8.10206951556729e-08,-1.17986614090851e-06,-1.15518044227319e-06,-3.03532705027608e-07,-1.26152210063016e-06,-3.96933711179424e-07,-8.48987680042019e-07,2.54770202353342e-06,1.25013367712176e-06,-6.43163140417346e-07,7.71079111222156e-07,7.47976348392111e-07,-5.97338636878043e-07,-1.76909818970321e-06,-1.05639928971443e-07,-1.0842685896317e-06,-2.53080801126687e-06,-6.965804524053e-06,4.48593126796848e-06,-9.24592406348302e-06,7.7856319822665e-06,-8.45929892317704e-07,-1.30040151035368e-06,1.83826888727423e-06,-1.8179656881918e-06,-8.81707992346452e-07,-2.51740251499195e-07,-4.20738867198667e-07,-9.74268442382781e-07,-1.39818813310271e-06,-8.48143617929858e-07,-9.36971165873396e-07,-5.57993894973155e-07,1.14330626424598e-07,7.68597991007104e-07,-9.19173753121939e-07,3.1952071483026e-07,-2.03576537869855e-06,1.71365733914369e-06,-9.33918984807659e-07,-4.99833952700918e-07,-4.58108987948338e-06,4.93760864067152e-07,-1.38333740583634e-06,1.50309736093993e-06,-8.81734826079373e-07,4.10288716928418e-07,-2.3951600854692e-07,4.54264528446593e-07,-1.51718489151083e-06,1.4797211788037e-06,-1.80981809559811e-06,7.35307963556427e-07,-2.50485168973645e-05,5.67041813865905e-05,-9.82323098007244e-08,3.66541888905328e-07,-1.32239106078625e-06,-5.20188390079284e-07,-7.44688417505802e-07,-5.16357542212466e-07,-1.80168065066192e-06,-2.02555866388796e-06,-1.74391146428853e-06,-8.52154798973467e-07
