S1_D1_HbO,S1_D1_HbR,S1_D2_HbO,S1_D2_HbR,S1_D20_HbO,S1_D20_HbR,S2_D2_HbO,S2_D2_HbR,S2_D3_HbO,S2_D3_HbR,S2_D21_HbO,S2_D21_HbR,S3_D3_HbO,S3_D3_HbR,S3_D4_HbO,S3_D4_HbR,S3_D22_HbO,S3_D22_HbR,S4_D5_HbO,S4_D5_HbR,S4_D6_HbO,S4_D6_HbR,S4_D7_HbO,S4_D7_HbR,S4_D17_HbO,S4_D17_HbR,S4_D8_HbO,S4_D8_HbR,S4_D23_HbO,S4_D23_HbR,S5_D7_HbO,S5_D7_HbR,S5_D10_HbO,S5_D10_HbR,S5_D8_HbO,S5_D8_HbR,S5_D9_HbO,S5_D9_HbR,S5_D24_HbO,S5_D24_HbR,S6_D10_HbO,S6_D10_HbR,S6_D11_HbO,S6_D11_HbR,S6_D12_HbO,S6_D12_HbR,S6_D9_HbO,S6_D9_HbR,S6_D25_HbO,S6_D25_HbR,S7_D11_HbO,S7_D11_HbR,S7_D12_HbO,S7_D12_HbR,S7_D13_HbO,S7_D13_HbR,S7_D14_HbO,S7_D14_HbR,S7_D18_HbO,S7_D18_HbR,S7_D26_HbO,S7_D26_HbR,S8_D15_HbO,S8_D15_HbR,S8_D16_HbO,S8_D16_HbR,S8_D19_HbO,S8_D19_HbR,S8_D9_HbO,S8_D9_HbR,S8_D27_HbO,S8_D27_HbR
6.87987304784974e-06,-6.61598997346756e-07,3.1209295749771e-07,-6.9227499762437e-07,1.91976367598226e-06,-7.36405712192232e-07,1.87587275977224e-06,-9.81306367437489e-08,1.76192697381107e-06,1.12720348052796e-07,1.05463105074381e-05,-3.97022654163037e-06,2.40304862851808e-06,5.42837589249122e-07,1.97181542195753e-06,2.98771240193121e-07,2.16425618310492e-06,-9.92432425176919e-07,5.24348788191418e-07,9.32856861077913e-07,-2.0166556094081e-07,1.28866365549655e-07,-5.25577285939971e-07,-2.54349267774688e-07,-1.04173235962809e-06,4.94465286930779e-07,-3.32484725392903e-06,2.9134501810799e-06,1.39690586611566e-06,-3.27922958953192e-07,-2.92228193180346e-06,2.52712831019868e-07,-1.73503561829935e-06,-8.58059408649571e-08,-1.45009167234361e-06,-1.37422999840939e-06,-1.71388546763968e-06,-9.74558744176069e-08,5.99994618490213e-08,8.87151120295739e-09,-6.96027150523966e-07,4.17020628577629e-08,5.8269333589601e-07,6.50981017402898e-07,2.08908915309284e-07,-9.82901951749011e-07,-2.32989907024078e-07,6.5035253113865e-07,3.77741616558515e-06,-1.01911643474685e-06,1.52877551164825e-06,5.76829087320428e-08,2.82051764401087e-06,-6.52229311331032e-07,1.32573145018851e-06,3.41715609200324e-08,5.75452160137479e-06,-1.22374466508461e-06,3.47967834922419e-06,-9.12836266119601e-08,2.12875835982385e-06,2.12054306860883e-06,2.16232265421712e-06,5.37043810090575e-07,1.79069609060529e-06,-2.1514901572044e-07,8.44314265734246e-07,-2.39077358224359e-07,2.08164133073346e-06,-1.72127965160155e-06,6.35517379791652e-06,-3.21181175908529e-06
6.98358384187803e-06,-6.61447393087736e-07,3.42894050923795e-07,-7.0444112399273e-07,1.96192619969602e-06,-7.45617463758463e-07,1.94462209870529e-06,-1.13740541160821e-07,1.81290356499187e-06,9.17885975039947e-08,1.06578111021598e-05,-4.04265805606098e-06,2.43930466375775e-06,5.2752849873211e-07,2.04931014123821e-06,2.88665453687377e-07,2.13106871284164e-06,-1.05656786216917e-06,5.69911701413242e-07,9.04128178545473e-07,-1.69393503543355e-07,1.3349987035646e-07,-4.08799422744826e-07,-2.92551408144186e-07,-9.9603250722116e-07,5.22497142927634e-07,-3.31704849065102e-06,2.86936047335649e-06,1.44550601414676e-06,-3.35370129161911e-07,-2.80854684025569e-06,2.29881367555011e-07,-1.68942181746797e-06,-9.83408075442984e-08,-1.50018562238496e-06,-1.31644102835181e-06,-1.67985914548653e-06,-1.29135715123634e-07,1.01378384689391e-07,-5.49192759926618e-09,-6.88446627092927e-07,5.42741069702612e-08,6.61577430868619e-07,6.44167345353498e-07,1.26460837435325e-07,-9.25656766831673e-07,-1.75681404443104e-07,6.40322950043897e-07,3.97057071720734e-06,-1.07269661168465e-06,1.50582548380004e-06,9.75536727324646e-08,2.85892436611833e-06,-6.50245515874935e-07,1.32738901129948e-06,3.19523847227167e-08,5.77821973940867e-06,-1.22610804781992e-06,3.52033072079902e-06,-9.97888255791923e-08,2.46110054982573e-06,1.80379531825373e-06,2.23436369952107e-06,5.21523702072139e-07,1.84554725277312e-06,-2.12580774642308e-07,8.97154795552703e-07,-2.36451336758722e-07,2.09615550295205e-06,-1.77063844719676e-06,6.52913448520291e-06,-3.24757439249012e-06
7.08512447213804e-06,-6.60403046581305e-07,3.73539665697713e-07,-7.16062939445122e-07,2.00388656312759e-06,-7.53665076650076e-07,2.01150101019043e-06,-1.29181332351453e-07,1.86012007012154e-06,7.12875869754189e-08,1.07597533661495e-05,-4.11386103194072e-06,2.47147669486174e-06,5.11983245296517e-07,2.12441332309565e-06,2.78333559949882e-07,2.08792437167046e-06,-1.12206731790161e-06,6.17223769126836e-07,8.72590210941494e-07,-1.36973975524421e-07,1.37639650141492e-07,-2.90428780669411e-07,-3.31503081465067e-07,-9.49242456468373e-07,5.51758563872833e-07,-3.31227259765527e-06,2.8271753807946e-06,1.49057888360414e-06,-3.42705945381721e-07,-2.69039055533619e-06,2.03264766975342e-07,-1.64226348566077e-06,-1.10750733800607e-07,-1.54905066181947e-06,-1.25654379659972e-06,-1.64406984208739e-06,-1.60721236519905e-07,1.46467902803998e-07,-1.95246341135144e-08,-6.79923417606899e-07,6.75983303824091e-08,7.37669359954809e-07,6.39696519071927e-07,4.32312336767819e-08,-8.65120814463242e-07,-1.17534381986626e-07,6.29446702220949e-07,4.16141712219844e-06,-1.12836333168067e-06,1.47952408275015e-06,1.38896105495857e-07,2.89582595926779e-06,-6.48505444434216e-07,1.32785166463882e-06,3.00132274028047e-08,5.79719836847656e-06,-1.22721257763674e-06,3.5597771162258e-06,-1.07946374851787e-07,2.7793140712071e-06,1.48816228647826e-06,2.30733353419982e-06,5.05304511990238e-07,1.90039788093145e-06,-2.09677318347894e-07,9.50282530404681e-07,-2.33742606651184e-07,2.11466755655398e-06,-1.81780876283505e-06,6.70380063645402e-06,-3.2808908728967e-06
7.18434734579702e-06,-6.58489446543478e-07,4.04221864089449e-07,-7.27088076856442e-07,2.04583507718108e-06,-7.60472054093396e-07,2.07651690934895e-06,-1.44453627494795e-07,1.90361701159169e-06,5.12571149572155e-08,1.08517867908526e-05,-4.18358817012495e-06,2.49956744216934e-06,4.96202831828487e-07,2.19695122619789e-06,2.67771571519183e-07,2.03496149727511e-06,-1.18881044397482e-06,6.66226960717798e-07,8.38325905533026e-07,-1.04530138952099e-07,1.41217811524271e-07,-1.70655539361881e-07,-3.71296450734622e-07,-9.01542458784137e-07,5.82093406786102e-07,-3.31011274989114e-06,2.78685030220735e-06,1.53213424582005e-06,-3.49996487378953e-07,-2.56806445348918e-06,1.7277744034297e-07,-1.59358327714889e-06,-1.23041861792576e-07,-1.59641791761377e-06,-1.19475937969496e-06,-1.60644755061944e-06,-1.92154613684586e-07,1.95140870610055e-07,-3.31295076613802e-08,-6.70380883256002e-07,8.16205634952663e-08,8.10721881522699e-07,6.37673021406744e-07,-4.06304102839775e-08,-8.01114223473202e-07,-5.86243850552906e-08,6.17709842543383e-07,4.34955112364262e-06,-1.18603687813113e-06,1.44984977182342e-06,1.81646946215718e-07,2.93114590671374e-06,-6.47001090895275e-07,1.32720832404536e-06,2.83774104675184e-08,5.81144055841892e-06,-1.22701498604171e-06,3.59795569882976e-06,-1.1572643951301e-07,3.08220408892307e-06,1.17687095721287e-06,2.38106105387645e-06,4.88383881768897e-07,1.95504505496091e-06,-2.0651657927822e-07,1.00346780286601e-06,-2.3101277518634e-07,2.13723338879584e-06,-1.86282153629779e-06,6.87881637625653e-06,-3.31175509943702e-06
7.28110636387239e-06,-6.55732877346848e-07,4.35138744918769e-07,-7.37462596148718e-07,2.0879497979827e-06,-7.65965425775867e-07,2.13968315972091e-06,-1.59558339675781e-07,1.9434518706838e-06,3.17356628183387e-08,1.09335631241448e-05,-4.25158825178653e-06,2.52359544710639e-06,4.80189071513993e-07,2.26675828990465e-06,2.56976258621881e-07,1.9723594883054e-06,-1.25666882299974e-06,7.16858770669923e-07,8.01423540925524e-07,-7.21891643241235e-08,1.44168278994316e-07,-4.96701521568753e-08,-4.12023969447415e-07,-8.53103242520718e-07,6.13325493890797e-07,-3.31015925936994e-06,2.74834825461617e-06,1.57019789883451e-06,-3.57305154845987e-07,-2.44183347715768e-06,1.38354523842017e-07,-1.54340996073293e-06,-1.35221102816805e-07,-1.64201765751757e-06,-1.13131804395593e-06,-1.56693234059737e-06,-2.23377660962337e-07,2.47252328793763e-07,-4.62070677744373e-08,-6.59747131035282e-07,9.62848658681415e-08,8.80499799746378e-07,6.38182765318804e-07,-1.24968646187776e-07,-7.33470835370467e-07,9.65028631557246e-10,6.05099848790637e-07,4.53458819679762e-06,-1.24564134557182e-06,1.41678685015255e-06,2.25732756489602e-07,2.96480733809682e-06,-6.45720765046521e-07,1.32555060026604e-06,2.70670243449042e-08,5.82094220479805e-06,-1.22547948105093e-06,3.63480095546393e-06,-1.23102590757815e-07,3.36862573864463e-06,8.73240785446124e-07,2.4553618532651e-06,4.70758812746909e-07,2.00927674295851e-06,-2.03181211649875e-07,1.05647315882418e-06,-2.28324496531993e-07,2.16387741205144e-06,-1.90571389874531e-06,7.05379762479539e-06,-3.3401624516275e-06
7.37525707273164e-06,-6.52162316919636e-07,4.66492540549735e-07,-7.47131337026337e-07,2.13039462439162e-06,-7.70076329888621e-07,2.20101855260686e-06,-1.74496583601212e-07,1.97969839735801e-06,1.27602982642559e-08,1.10047373454321e-05,-4.31760717462773e-06,2.5435944184469e-06,4.63944655605647e-07,2.33367826495017e-06,2.45945258898899e-07,1.90033761318446e-06,-1.32550641928952e-06,7.69051775459292e-07,7.61977023577461e-07,-4.00812980189572e-08,1.46427206561034e-07,7.23371500247166e-08,-4.53777556952113e-07,-8.04084950598941e-07,6.45259398007988e-07,-3.31200302428581e-06,2.71164047811893e-06,1.60481094495578e-06,-3.64692176258975e-07,-2.31197514392899e-06,9.9952602104348e-08,-1.49177842111048e-06,-1.4729604522396e-07,-1.68558085628443e-06,-1.066457868626e-06,-1.52547492658952e-06,-2.54332142550477e-07,3.02640261882799e-07,-5.86563518121192e-08,-6.47955743239955e-07,1.11534056163319e-07,9.467810016183e-07,6.41292683262313e-07,-2.09623421200119e-07,-6.62039124966992e-07,6.11426797751071e-08,5.916058179664e-07,4.71616466048501e-06,-1.30710469338504e-06,1.38032526774929e-06,2.71070484394835e-07,2.99673350360054e-06,-6.446493697103e-07,1.32297202821799e-06,2.61027260579092e-08,5.8257120807267e-06,-1.22257821658049e-06,3.67024384026988e-06,-1.30052041586643e-07,3.63749915729756e-06,5.80649851413854e-07,2.53003925532495e-06,4.52425789641476e-07,2.06287331664581e-06,-1.99757904929916e-07,1.1090548395459e-06,-2.25740991144472e-07,2.19459257913689e-06,-1.9465287813703e-06,7.22833420615968e-06,-3.36610994443785e-06
7.46665684565203e-06,-6.47809350899946e-07,4.98487624868265e-07,-7.56038315974691e-07,2.17331753965618e-06,-7.72740600443718e-07,2.26054672926075e-06,-1.89269590826388e-07,2.012445802797e-06,-5.63342694235795e-09,1.10649688424056e-05,-4.38138905257519e-06,2.55961249594501e-06,4.47473209755885e-07,2.39756527299153e-06,2.3467717954727e-07,1.8191536286852e-06,-1.39518006646547e-06,8.22733136203191e-07,7.20086254695018e-07,-8.33892519259592e-09,1.47933380671474e-07,1.95176760942223e-07,-4.96647680950007e-07,-7.54636232440681e-07,6.77681434754541e-07,-3.31523868351238e-06,2.67670689211268e-06,1.63602895936094e-06,-3.72214149943809e-07,-2.17877842622364e-06,5.75502180281252e-08,-1.43872963847178e-06,-1.59274852540382e-07,-1.72684083058532e-06,-1.00042327448022e-06,-1.48203716780138e-06,-2.84960087064381e-07,3.61126440888071e-07,-7.03758304823816e-08,-6.3494649571125e-07,1.27310247345875e-07,1.00935736400543e-06,6.47050488046885e-07,-2.94431418286837e-07,-5.86683128378473e-07,1.21810191830445e-07,5.77218665851201e-07,4.89393858679581e-06,-1.37035873944347e-06,1.34046043480649e-06,3.17568089742728e-07,3.02684826948268e-06,-6.43768714998628e-07,1.31956728815123e-06,2.55035401398786e-08,5.82577180344749e-06,-1.21829167140209e-06,3.70421196247657e-06,-1.36555846765115e-07,3.88782438668047e-06,3.02499830549145e-07,2.60488541768663e-06,4.33380956428008e-07,2.11560912956845e-06,-1.96336645329715e-07,1.16096432533423e-06,-2.23325558006216e-07,2.22934055861606e-06,-1.98531449045745e-06,7.40199213964215e-06,-3.3895964135852e-06
7.55516508585266e-06,-6.42708101383084e-07,5.31328448340444e-07,-7.64127166033888e-07,2.21684900893641e-06,-7.73899355724368e-07,2.31829555315296e-06,-2.03878634658044e-07,2.04179783954763e-06,-2.3411584198428e-08,1.11139227867176e-05,-4.44267737558867e-06,2.57171143884822e-06,4.3077933876811e-07,2.45828478388027e-06,2.23171690823928e-07,1.7291022110036e-06,-1.4655399908022e-06,8.7782407775161e-07,6.75857533110668e-07,2.29043635228009e-08,1.48628609911166e-07,3.18660021321887e-07,-5.40722372612904e-07,-7.04893506195972e-07,7.10360865327973e-07,-3.31946748231473e-06,2.64353639532824e-06,1.66392106284665e-06,-3.79923624779538e-07,-2.04254256507397e-06,1.11482219371646e-08,-1.38431064721084e-06,-1.71166154055937e-07,-1.7655349452625e-06,-9.33463465669352e-07,-1.43659249525405e-06,-3.15204103226504e-07,4.22517341934337e-07,-8.12643308071409e-08,-6.2066606484765e-07,1.43555384963479e-07,1.06803552936992e-06,6.55484612251051e-07,-3.79227370801619e-07,-5.07283364396914e-07,1.82862442771927e-07,5.61931327234328e-07,5.06759051141732e-06,-1.43533909671764e-06,1.29719303336881e-06,3.65125219433242e-07,3.05507662153563e-06,-6.43057862444219e-07,1.31543142654859e-06,2.52866642877366e-08,5.82115571240501e-06,-1.21260893950192e-06,3.73662981201692e-06,-1.42599065506877e-07,4.11869604582886e-06,4.2179995726286e-08,2.67968250452787e-06,4.13620342006625e-07,2.16725413342912e-06,-1.93009924353402e-07,1.21194992599186e-06,-2.2114108294487e-07,2.26805205442059e-06,-2.02212425316988e-06,7.57431607892743e-06,-3.41062272194828e-06
7.64064343381743e-06,-6.36895167271279e-07,5.65217414633707e-07,-7.71341616130375e-07,2.26110053282354e-06,-7.73499583049863e-07,2.37429643672975e-06,-2.18324964253684e-07,2.06787177204832e-06,-4.05419785417509e-08,1.11512716932118e-05,-4.5012162246422e-06,2.57996574413433e-06,4.13868660179811e-07,2.51571449628812e-06,2.11429610091362e-07,1.63051319783166e-06,-1.53643036911034e-06,9.34239363155276e-07,6.29403966963598e-07,5.35146901345411e-08,1.48458097800833e-07,4.42599465644804e-07,-5.86086197916685e-07,-6.54980407294405e-07,7.43051310259223e-07,-3.32429983045712e-06,2.61212693298289e-06,1.68856891116953e-06,-3.87868731276479e-07,-1.90357592476946e-06,-3.92299563836956e-08,-1.32857447778718e-06,-1.82978929782515e-07,-1.80140639604541e-06,-8.65830796243843e-07,-1.3891262663273e-06,-3.45007694370049e-07,4.86605127566777e-07,-9.12219564146705e-08,-6.05068725731886e-07,1.60211784555155e-07,1.12263756028359e-06,6.66604313368039e-07,-4.63845333329016e-07,-4.2373775510932e-07,2.44188036708447e-07,5.45738953201776e-07,5.23682394641086e-06,-1.50198505588174e-06,1.25052884165992e-06,4.13633920964072e-07,3.08134516076643e-06,-6.42493483558357e-07,1.31065908347642e-06,2.54672798253861e-08,5.81191065859156e-06,-1.20552793658927e-06,3.7674190173233e-06,-1.48170886307273e-07,4.32931763891065e-06,-1.96969448384953e-07,2.75420391222149e-06,3.93140131030499e-07,2.21757551031506e-06,-1.89871899053245e-07,1.26175840232027e-06,-2.19249546371246e-07,2.31062726174017e-06,-2.05701573402591e-06,7.74483186401808e-06,-3.42919198032276e-06
7.72295596333762e-06,-6.30409573116201e-07,6.00352715164353e-07,-7.77626005373488e-07,2.30616335883299e-06,-7.71494713852608e-07,2.42858362795118e-06,-2.32609747601669e-07,2.09079724233527e-06,-5.69942603166008e-08,1.117669714553e-05,-4.55675153633261e-06,2.58446170103667e-06,3.96747827399489e-07,2.56974510977099e-06,1.99452975601432e-07,1.52374964229667e-06,-1.60768991964172e-06,9.91886780222184e-07,5.80845867694241e-07,8.335878151317e-08,1.47370795980569e-07,5.66808992158503e-07,-6.32819203163201e-07,-6.05007433395378e-07,7.75492368682277e-07,-3.32935756790595e-06,2.58248529274564e-06,1.71006561334973e-06,-3.96092874225768e-07,-1.76219498273349e-06,-9.35380507119358e-08,-1.27158008468526e-06,-1.94722391840472e-07,-1.83420605703051e-06,-7.97779086737205e-07,-1.33963604659552e-06,-3.74315568915363e-07,5.53168679195832e-07,-1.00150996371847e-07,-5.88117036529274e-07,1.77222658626301e-07,1.17300148976709e-06,6.80399920639573e-07,-5.48119880814279e-07,-3.35962574105679e-07,3.05669791166332e-07,5.28639100974714e-07,5.40136570123454e-06,-1.57023941374824e-06,1.20047858528216e-06,4.62979381893892e-07,3.10558258036572e-06,-6.42050215828666e-07,1.3053437351944e-06,2.60583669019036e-08,5.79809571492e-06,-1.19705552776659e-06,3.79649863634658e-06,-1.53264713933988e-07,4.51901517623644e-06,-4.11694091018947e-07,2.82821553682761e-06,3.71936978117263e-07,2.26633930570799e-06,-1.87017514024861e-07,1.31013660509437e-06,-2.17711534091106e-07,2.3569364575719e-06,-2.09005052142481e-06,7.9130491618833e-06,-3.44530977871461e-06
7.80196935992317e-06,-6.2329272313457e-07,6.36926143939899e-07,-7.82925826847615e-07,2.352107367083e-06,-7.67845181719524e-07,2.48119346697562e-06,-2.46734023533742e-07,2.11071504171531e-06,-7.27400357044987e-08,1.11898916785108e-05,-4.6090324111948e-06,2.58529639346795e-06,3.79424543502636e-07,2.62028098304583e-06,1.87245108995613e-07,1.40920568726973e-06,-1.67915252416961e-06,1.05066666078576e-06,5.30311099321938e-07,1.12304829450662e-07,1.45319735641437e-07,6.91103959506063e-07,-6.80995849538407e-07,-5.55071786969256e-07,8.07411432680049e-07,-3.3342760242094e-06,2.55462670131221e-06,1.72851459198036e-06,-4.0463449333978e-07,-1.61872347791922e-06,-1.51706718649265e-07,-1.21339225891156e-06,-2.06405865113803e-07,-1.8636943547421e-06,-7.29561933692626e-07,-1.28813181592557e-06,-4.03073943728977e-07,6.2197467523061e-07,-1.07956814896389e-07,-5.69782493598951e-07,1.94532619088799e-07,1.2189817809818e-06,6.96843204937916e-07,-6.31887206792453e-07,-2.43893458631129e-07,3.671852405966e-07,5.10631912254171e-07,5.56096602593852e-06,-1.64004824440935e-06,1.14705783314671e-06,5.13040683163493e-07,3.12772012138383e-06,-6.41701005200596e-07,1.29957696192964e-06,2.70705254827561e-08,5.77978182465312e-06,-1.1872075797648e-06,3.82378548780012e-06,-1.57878219162587e-07,4.6872496051728e-06,-5.98861211091442e-07,2.90147707250385e-06,3.50008365595121e-07,2.31331205220841e-06,-1.84541596779514e-07,1.35683312068174e-06,-2.16585755336556e-07,2.40682073294742e-06,-2.12129358486734e-06,8.07846418242955e-06,-3.45898442382495e-06
7.87755308319002e-06,-6.15588356069372e-07,6.75120921628696e-07,-7.87188294802937e-07,2.39898015937143e-06,-7.62518955204408e-07,2.53216362852002e-06,-2.60698663053269e-07,2.1277758049874e-06,-8.7752973488641e-08,1.11905608139095e-05,-4.65781245918116e-06,2.58257666559291e-06,3.61907567202712e-07,2.66724067833716e-06,1.74810665207561e-07,1.2873042755603e-06,-1.75064787926231e-06,1.11047145385491e-06,4.77935361188254e-07,1.40223316155458e-07,1.42262335254473e-07,8.15301222873067e-07,-7.3068395257807e-07,-5.05257408580181e-07,8.38525681712349e-07,-3.33870597846575e-06,2.5285743544437e-06,1.74402839864756e-06,-4.13526890819911e-07,-1.47349165684223e-06,-2.13643383563304e-07,-1.15408152016561e-06,-2.18038670523612e-07,-1.88964311514122e-06,-6.61431065449932e-07,-1.2346360929258e-06,-4.31230838156611e-07,6.92778714054671e-07,-1.14548714884111e-07,-5.50046136680624e-07,2.1208814098909e-07,1.26044970433421e-06,7.15887859121796e-07,-7.14986104149769e-07,-1.47486509127559e-07,4.28607157884928e-07,4.91720277342005e-07,5.71539859684647e-06,-1.71136061010128e-06,1.09028695583771e-06,5.6369155405356e-07,3.14769200783833e-06,-6.41417430541112e-07,1.2934477490728e-06,2.85118048736013e-08,5.75705140175876e-06,-1.17600893912137e-06,3.8491945283434e-06,-1.62013352549138e-07,4.83362752235821e-06,-7.55493896113446e-07,2.97374333054709e-06,3.27353002571815e-07,2.35826237276381e-06,-1.82537936375217e-07,1.40159991263713e-06,-2.1592857264226e-07,2.46009287453398e-06,-2.15081270540723e-06,8.24056245528985e-06,-3.47022717427703e-06
7.94957951462103e-06,-6.07342495381701e-07,7.15109560242406e-07,-7.9036292852624e-07,2.44680637985799e-06,-7.55492037343706e-07,2.58153236587627e-06,-2.74504339938539e-07,2.14213864509846e-06,-1.02008905328681e-07,1.11784252416858e-05,-4.7028511746656e-06,2.57641806480007e-06,3.44206712346668e-07,2.71055739106001e-06,1.62155668314447e-07,1.15849471324322e-06,-1.82200217468288e-06,1.17118537001817e-06,4.23862389294316e-07,1.66987802395199e-07,1.3816068281147e-07,9.39219128000467e-07,-7.81943646331261e-07,-4.55635187565833e-07,8.68544235517092e-07,-3.34231556386775e-06,2.50435897007782e-06,1.75672749682136e-06,-4.22798120691585e-07,-1.32683551790201e-06,-2.79232239856503e-07,-1.09372398501569e-06,-2.29630013764596e-07,-1.91183733508212e-06,-5.9363479543273e-07,-1.17918397249976e-06,-4.58736357660233e-07,7.65326480227738e-07,-1.19840769053318e-07,-5.28899087255827e-07,2.29837976852214e-07,1.2972936396685e-06,7.3747007152389e-07,-7.9725883038247e-07,-4.67194740803125e-08,4.8980409223002e-07,4.71909983169827e-07,5.86446036365181e-06,-1.7841282112781e-06,1.03019115695256e-06,6.14801117467124e-07,3.16543585744928e-06,-6.41170006540434e-07,1.28704182650531e-06,3.03875455753898e-08,5.729997886161e-06,-1.16349333637485e-06,3.87263927359764e-06,-1.65676323776025e-07,4.9579097301548e-06,-8.78802543784201e-07,3.04476556746153e-06,3.03971258133964e-07,2.40096254802165e-06,-1.81098354321154e-07,1.4441939459908e-06,-2.15793548398135e-07,2.51653839526573e-06,-2.17867788423084e-06,8.39882164150235e-06,-3.47905246108785e-06
8.01792408511952e-06,-5.98603389029841e-07,7.57051796756625e-07,-7.92402145608207e-07,2.49558728144738e-06,-7.46748924798766e-07,2.62933776784888e-06,-2.88151510133895e-07,2.15396974278418e-06,-1.15485917372423e-07,1.11532231264303e-05,-4.74391533121845e-06,2.56694377214689e-06,3.26332841234986e-07,2.75017925986441e-06,1.49287532039281e-07,1.02325010145307e-06,-1.89303879644172e-06,1.23268411315898e-06,3.68244060475427e-07,1.92475672306012e-07,1.32981790987257e-07,1.06267748012783e-06,-8.34826395994196e-07,-4.06263332541162e-07,8.97170436142923e-07,-3.34479207279334e-06,2.48201836474236e-06,1.76673902309052e-06,-4.32470935420801e-07,-1.17909597434571e-06,-3.48334476078608e-07,-1.03240121139352e-06,-2.41188881196072e-07,-1.93007684798515e-06,-5.264166097279e-07,-1.12182307535697e-06,-4.85542966037137e-07,8.39354947533746e-07,-1.23752613868333e-07,-5.06343010784472e-07,2.47733514991793e-07,1.32941931343784e-06,7.61509168923576e-07,-8.78551876210015e-07,5.84070128862533e-08,5.50640917348721e-07,4.51209843567041e-07,6.00797126962092e-06,-1.85830497840036e-06,9.66800575092866e-07,6.66234617932021e-07,3.18089305957243e-06,-6.40928460005355e-07,1.2804410483341e-06,3.27002367332037e-08,5.69872524863393e-06,-1.14970321614924e-06,3.89403225409005e-06,-1.68877547711173e-07,5.0600172703555e-06,-9.66213006093596e-07,3.11429281060293e-06,2.79865615481189e-07,2.44119003184911e-06,-1.80311779609801e-07,1.48437877849508e-06,-2.16231012726791e-07,2.57591670688512e-06,-2.2049607375648e-06,8.55271434509649e-06,-3.48547808053132e-06
8.08246537196397e-06,-5.89421434145937e-07,8.01092619014198e-07,-7.93261856885209e-07,2.54530053838639e-06,-7.36283020587163e-07,2.67561703470257e-06,-3.01640399209863e-07,2.16344090214132e-06,-1.2816443200396e-07,1.11147125071494e-05,-4.7807803832177e-06,2.55428352732114e-06,3.08297850897451e-07,2.78606955016238e-06,1.3621506404793e-07,8.82064652152234e-07,-1.9635790511675e-06,1.29483471975953e-06,3.11240373878488e-07,2.16568827931598e-07,1.26697823578515e-07,1.18549750071484e-06,-8.89374082813521e-07,-3.57187882432102e-07,9.24104225458474e-07,-3.34584356829087e-06,2.46159699157321e-06,1.77419553556266e-06,-4.42562785998621e-07,-1.03061789287855e-06,-4.207887392691e-07,-9.70200021876184e-07,-2.52723943692435e-07,-1.94417787267623e-06,-4.60013902547807e-07,-1.06261341216942e-06,-5.11605744163943e-07,9.14593608458575e-07,-1.26210202311903e-07,-4.82390497735955e-07,2.65729077952998e-07,1.35674998213588e-06,7.87908308928333e-07,-9.58716672621094e-07,1.6786821159438e-07,6.10979383421944e-07,4.29631810313018e-07,6.14577385231329e-06,-1.93384661115093e-06,9.00150442295663e-07,7.17854130349342e-07,3.19400911503959e-06,-6.40661976762431e-07,1.27372281599476e-06,3.54493906667747e-08,5.66334744243054e-06,-1.13468949397363e-06,3.91328549807815e-06,-1.71631558202726e-07,5.1400345918702e-06,-1.0153907237602e-06,3.18207317640764e-06,2.55041127063132e-07,2.47872890467289e-06,-1.80263343789193e-07,1.52192610380252e-06,-2.17287656880381e-07,2.6379624301499e-06,-2.22973388894599e-06,8.70171089363726e-06,-3.48952535072683e-06
8.14308516092875e-06,-5.79849083743121e-07,8.47360405725537e-07,-7.92902054798722e-07,2.5959003046201e-06,-7.24096994458904e-07,2.72040577876168e-06,-3.14970997167546e-07,2.1707280838182e-06,-1.40027279193352e-07,1.10626737548238e-05,-4.81323185847616e-06,2.53857255605593e-06,2.90114651226748e-07,2.81820670822183e-06,1.22948453796989e-07,7.35450908175624e-07,-2.03344290756759e-06,1.35749553014497e-06,2.53019276091253e-07,2.39154330483983e-07,1.1928629119552e-07,1.30750178246333e-06,-9.45618179596307e-07,-3.08443338520465e-07,9.490445853337e-07,-3.34520019263955e-06,2.44314535015974e-06,1.7792337577794e-06,-4.5308586984549e-07,-8.81748982361119e-07,-4.96411855912782e-07,-9.07212306283367e-07,-2.64243469010034e-07,-1.95397444583134e-06,-3.94656851128346e-07,-1.00162716545921e-06,-5.36882632366232e-07,9.90765719788872e-07,-1.27146511436845e-07,-4.57065356979382e-07,2.83782159278697e-07,1.37922657400054e-06,8.16555212033973e-07,-1.03761028213244e-06,2.81614162924007e-07,6.70678670880384e-07,4.07191063639963e-07,6.27773273585925e-06,-2.01071007384835e-06,8.30281280174325e-07,7.69519251950985e-07,3.20473394062145e-06,-6.40339421561184e-07,1.26695955003886e-06,3.86314347707621e-08,5.62398780933655e-06,-1.11851124274241e-06,3.93031104023647e-06,-1.73956891464926e-07,5.19820960991815e-06,-1.02426041599351e-06,3.2478551865563e-06,2.29505846221814e-07,2.5133712621838e-06,-1.81033512724997e-07,1.55661723533981e-06,-2.19006155797445e-07,2.70238684762752e-06,-2.25307036948866e-06,8.84528207130342e-06,-3.49121922953473e-06
8.19966848523186e-06,-5.69940734438275e-07,8.95965205676288e-07,-7.91287386112458e-07,2.64731752674364e-06,-7.10203084024721e-07,2.76373735955854e-06,-3.28143059793947e-07,2.17600993235758e-06,-1.51059756930822e-07,1.09969120529455e-05,-4.84106672514745e-06,2.51995051144002e-06,2.71797134493879e-07,2.84658428993959e-06,1.0949924431343e-07,5.83936893444513e-07,-2.10244975054154e-06,1.42051631080309e-06,1.93756302726975e-07,2.60124991320487e-07,1.10730213903692e-07,1.42851425367872e-06,-1.00357902742263e-06,-2.60053397804532e-07,9.71692010767356e-07,-3.34261505560502e-06,2.42671915909069e-06,1.78199332947392e-06,-4.64047219787638e-07,-7.3283851388117e-07,-5.74999826090127e-07,-8.43534800481733e-07,-2.75755243235361e-07,-1.95931973855405e-06,-3.30567413076214e-07,-9.38948390108395e-07,-5.61334653738333e-07,1.06758955749011e-06,-1.265022002222e-07,-4.30402812618643e-07,3.0185359867867e-07,1.39680780095087e-06,8.47322930672489e-07,-1.11509610768743e-06,3.99568767750709e-07,7.29595950292457e-07,3.8390608005443e-07,6.40373403217663e-06,-2.08885305723602e-06,7.57239117654302e-07,8.21087781318428e-07,3.21302214517845e-06,-6.3992953566008e-07,1.26021821646465e-06,4.22396220064216e-08,5.58077845606788e-06,-1.10123531400424e-06,3.94502146030411e-06,-1.75875941806107e-07,5.2349506741925e-06,-9.9102128189321e-07,3.31138909249034e-06,2.03271212733243e-07,2.54491854097746e-06,-1.82697268138481e-07,1.58824452339685e-06,-2.21424822843871e-07,2.76887950883465e-06,-2.27504303296362e-06,8.98290180014944e-06,-3.4905883958885e-06
8.25210366618506e-06,-5.59752595255826e-07,9.46997184820156e-07,-7.88387699265342e-07,2.69946052605629e-06,-6.94623328927547e-07,2.80564226698756e-06,-3.41156115476174e-07,2.17946631791861e-06,-1.61249679971824e-07,1.09172598651581e-05,-4.86409471723283e-06,2.49856044272364e-06,2.53360136204575e-07,2.87121077251906e-06,9.58802887617213e-08,4.28063220180102e-07,-2.17041914407967e-06,1.48373852952748e-06,1.33634032709798e-07,2.79379918756905e-07,1.01018248744036e-07,1.54836016346724e-06,-1.06326521812695e-06,-2.1203176965248e-07,9.91750990180514e-07,-3.33786459093263e-06,2.41237817759172e-06,1.78261557913669e-06,-4.75448829485545e-07,-5.84235872669648e-07,-6.56329097012509e-07,-7.79268837116384e-07,-2.87266501560507e-07,-1.96008725107793e-06,-2.67958434059349e-07,-8.7467263219459e-07,-5.84926116650759e-07,1.1447796770564e-06,-1.24226213650473e-07,-4.02449597290851e-07,3.19907697349078e-07,1.40947025132285e-06,8.80070651041244e-07,-1.19104460714709e-06,5.2162908189879e-07,7.87586954961005e-07,3.59798673792037e-07,6.52368466894167e-06,-2.1682334157598e-06,6.81075718352577e-07,8.72416387555144e-07,3.21883328329317e-06,-6.39401115559562e-07,1.25355991039167e-06,4.62639638219148e-08,5.53385961450639e-06,-1.08293590056391e-06,3.95733045308917e-06,-1.7741479204957e-07,5.25082078513896e-06,-9.14158081792623e-07,3.37242821339968e-06,1.76352377448241e-07,2.57318278024503e-06,-1.853233470859e-07,1.61661269875087e-06,-2.24577299066275e-07,2.83710999244541e-06,-2.29572398885956e-06,9.11404976553194e-06,-3.48766529814555e-06
8.30028238014299e-06,-5.49342537758968e-07,1.00052526826696e-06,-7.84178556828283e-07,2.75221585680604e-06,-6.77389730926288e-07,2.84614756418179e-06,-3.5400947615378e-07,2.18127691065061e-06,-1.70587416048884e-07,1.08235793496544e-05,-4.88213960445418e-06,2.47454780355793e-06,2.34819387077965e-07,2.89210925605939e-06,8.21056929203866e-08,2.68380175640951e-07,-2.23717159956993e-06,1.54699576526143e-06,7.28413781213295e-08,2.96825025355993e-07,9.01447807253973e-08,1.66686609794052e-06,-1.12467308390176e-06,-1.64383064124997e-07,1.00893247387245e-06,-3.33074831497044e-06,2.40018459950646e-06,1.78124233250433e-06,-4.87287813373236e-07,-4.36288970530694e-07,-7.40158106234999e-07,-7.14520066709355e-07,-2.98783867730164e-07,-1.95617187704206e-06,-2.07032857985055e-07,-8.0890646757221e-07,-6.07624795441225e-07,1.22204817526437e-06,-1.20276329969535e-07,-3.73263941649504e-07,3.37912276788536e-07,1.41720847146925e-06,9.1464451621574e-07,-1.26533394276734e-06,6.47664778960449e-07,8.4450657006745e-07,3.34894007393865e-07,6.63751165497095e-06,-2.24880858686508e-06,6.0184880728726e-07,9.23361272085739e-07,3.22213209020649e-06,-6.38723176247705e-07,1.247039495109e-06,5.06911914443062e-08,5.48337898944109e-06,-1.06369404732577e-06,3.96715342344734e-06,-1.78603019463715e-07,5.24652960690709e-06,-7.924486989749e-07,3.43073028201407e-06,1.48768459912281e-07,2.59798781278117e-06,-1.88973544308325e-07,1.6415401342994e-06,-2.28492278590334e-07,2.906729819857e-06,-2.31518405586633e-06,9.23821397355848e-06,-3.48248617321582e-06
8.34409976574963e-06,-5.38769928067575e-07,1.05659599714397e-06,-7.78641704774511e-07,2.80544943274042e-06,-6.585443346739e-07,2.88527639624875e-06,-3.66702251391591e-07,2.18161980001534e-06,-1.79065908981757e-07,1.07157646770561e-05,-4.89504039287625e-06,2.44805950790928e-06,2.16191455699847e-07,2.9093170591512e-06,6.81907448692649e-08,1.05444806150534e-07,-2.30252934588115e-06,1.61011422730061e-06,1.15727436732762e-08,3.12373496943504e-07,7.81099767740754e-08,1.78386003706097e-06,-1.18778629518342e-06,-1.17103748401993e-07,1.02295631972852e-06,-3.32108800903787e-06,2.39020102632348e-06,1.77801476557966e-06,-4.99556598877549e-07,-2.89342564382286e-07,-8.26229079691077e-07,-6.49398151473826e-07,-3.10313300339771e-07,-1.94749083198476e-06,-1.47983028567128e-07,-7.41766964335076e-07,-6.29402088445562e-07,1.29910594676724e-06,-1.14619648721753e-07,-3.42915466210532e-07,3.5583868648138e-07,1.42003503929424e-06,9.50878455318874e-07,-1.33785046611642e-06,7.77517698422316e-07,9.00209438172025e-07,3.09220567911192e-07,6.74516128505247e-06,-2.33053499578923e-06,5.1962228639111e-07,9.73778827209625e-07,3.22288870180106e-06,-6.37865104338852e-07,1.24070529189457e-06,5.55047512075037e-08,5.42949109168846e-06,-1.04359711808424e-06,3.97440809531944e-06,-1.79473476883707e-07,5.22292386105652e-06,-6.24968781618926e-07,3.48605878491314e-06,1.20542739362895e-07,2.61917037520478e-06,-1.93702081416162e-07,1.66286001480557e-06,-2.3319327126592e-07,2.97737450692529e-06,-2.33349223887453e-06,9.35489322246293e-06,-3.47509104078724e-06
8.38345457729735e-06,-5.28095442533033e-07,1.11523261306033e-06,-7.71765492085055e-07,2.85900790514166e-06,-6.38139226060602e-07,2.92304756714528e-06,-3.79233365364245e-07,2.1806701673511e-06,-1.86680688956023e-07,1.05937442128806e-05,-4.90265244277992e-06,2.41924304024899e-06,1.97493681566543e-07,2.92288521316303e-06,5.41518334189092e-08,-6.01819838509622e-08,-2.36631709688777e-06,1.67291336796017e-06,-4.99729177895603e-08,3.2594622303043e-07,6.49198032166084e-08,1.89917146524725e-06,-1.25257557179997e-06,-7.01831698360929e-08,1.03355370864335e-06,-3.30872645680592e-06,2.38248813560204e-06,1.77307230646268e-06,-5.12243146007012e-07,-1.4373652444021e-07,-9.1427007346819e-07,-5.84016435384948e-07,-3.21860043488149e-07,-1.93398443830783e-06,-9.09900711128686e-08,-6.73381073910212e-07,-6.50233152032658e-07,1.37566392832149e-06,-1.07233016813392e-07,-3.11484982619478e-07,3.73661767444189e-07,1.41798062391169e-06,9.88595011339013e-07,-1.4084889664279e-06,9.11001426871551e-07,9.5455057981708e-07,2.82810107688551e-07,6.84659828270587e-06,-2.4133674462482e-06,4.34466428769095e-07,1.02352629957849e-06,3.2210788626909e-06,-6.36796806630389e-07,1.23459881752752e-06,6.0684837128465e-08,5.37235655893312e-06,-1.02273822673442e-06,3.97901512732671e-06,-1.80062048960284e-07,5.18097662277903e-06,-4.11093950219339e-07,3.53818428370798e-06,9.17027839746147e-08,2.63658112917754e-06,-1.99555046574618e-07,1.68042140646002e-06,-2.38698403437308e-07,3.04866574008178e-06,-2.35071523255008e-06,9.46359947259961e-06,-3.4655236772897e-06
8.41824939108535e-06,-5.17380870248321e-07,1.17643437962986e-06,-7.63545236031236e-07,2.91272027822797e-06,-6.16236446470791e-07,2.95947518787851e-06,-3.91601577272475e-07,2.17859902126368e-06,-1.93429871793904e-07,1.04574825376286e-05,-4.90484849092252e-06,2.3882456284394e-06,1.78744098602481e-07,2.93287786475538e-06,4.00063570110613e-08,-2.27938294818707e-07,-2.4283628114987e-06,1.73520658737751e-06,-1.11593139928808e-07,3.37472189660514e-07,5.05860082444369e-08,2.01263155531481e-06,-1.31899851937173e-06,-2.36046384514514e-08,1.04046951896612e-06,-3.29352596111729e-06,2.3771022562508e-06,1.76655159132426e-06,-5.25331187273408e-07,1.95916338108894e-10,-1.00399724515322e-06,-5.18491591605258e-07,-3.33428579623959e-07,-1.91561674552216e-06,-3.62233545131366e-08,-6.03884953671314e-07,-6.70097008275992e-07,1.45143432734047e-06,-9.81033894193437e-08,-2.79064205951463e-07,3.9135977783429e-07,1.41109401680926e-06,1.0276061754855e-06,-1.47715267331641e-06,1.04790092485946e-06,1.00738602978755e-06,2.55697551220695e-07,6.94180488212238e-06,-2.49725849590666e-06,3.46458043636116e-07,1.07246246968435e-06,3.21668412251876e-06,-6.35488856628544e-07,1.22875457019297e-06,6.62084612215506e-08,5.31214147485571e-06,-1.00121564021915e-06,3.98089873465779e-06,-1.80407384625831e-07,5.12177596297166e-06,-1.50499961927531e-07,3.58688570824427e-06,6.22805249553726e-08,2.6500855892559e-06,-2.06569906772925e-07,1.6940902216398e-06,-2.45020257805889e-07,3.12021366590123e-06,-2.36691695472623e-06,9.56386010834163e-06,-3.45383157360848e-06
8.44839087582041e-06,-5.06688906043842e-07,1.24017614984977e-06,-7.5398353006156e-07,2.96639975344756e-06,-5.92907822516211e-07,2.99456840211424e-06,-4.03805505838069e-07,2.17557200872368e-06,-1.9931415051583e-07,1.03069822900921e-05,-4.90151956583506e-06,2.355213489738e-06,1.59961349516436e-07,2.9393716008019e-06,2.5772624779296e-08,-3.97264028834193e-07,-2.48849844086495e-06,1.79680203598013e-06,-1.73083058731908e-07,3.46888837769551e-07,3.51260706825849e-08,2.12407344919648e-06,-1.3869996089576e-06,2.26534448982737e-08,1.04346464508507e-06,-3.27536688109466e-06,2.3740930781985e-06,1.75858548367867e-06,-5.38800480713959e-07,1.42129908307846e-07,-1.09511732058213e-06,-4.52943245382467e-07,-3.45022583458271e-07,-1.8923759537758e-06,1.61599553493211e-08,-5.33423222598839e-07,-6.88976622671713e-07,1.52613183749546e-06,-8.7228122890817e-08,-2.4575537290316e-07,4.08914283419048e-07,1.39944211840315e-06,1.0677142446809e-06,-1.54375305109522e-06,1.18797225215432e-06,1.05857349063072e-06,2.27920871146943e-07,7.03077985596661e-06,-2.5821578179474e-06,2.55680605868261e-07,1.12044835576155e-06,3.20969201771565e-06,-6.33912639254583e-07,1.22319986677284e-06,7.20495604546219e-08,5.24901669784493e-06,-9.79132157266463e-07,3.97998731972583e-06,-1.8055060784208e-07,5.04651328675849e-06,1.56838838708263e-07,3.63195161785373e-06,3.23122800132753e-08,2.6595649534546e-06,-2.14775091782039e-07,1.70375007671252e-06,-2.52165753523596e-07,3.19161928260629e-06,-2.38215811389828e-06,9.65522009087134e-06,-3.44006587978741e-06
8.47379013475005e-06,-4.96082936942595e-07,1.30640818543739e-06,-7.43090492448102e-07,3.0198457900663e-06,-5.68234712482862e-07,3.02833119508426e-06,-4.15843658084264e-07,2.1717483140609e-06,-2.04336782440576e-07,1.01422858241499e-05,-4.89257578675291e-06,2.32029115838666e-06,1.41164591457483e-07,2.94245470959786e-06,1.14697511865917e-08,-5.67603591831012e-07,-2.54656065717967e-06,1.85750351697687e-06,-2.34236598008142e-07,3.54142389759281e-07,1.85631153702972e-08,2.2333326535868e-06,-1.4565103176531e-06,6.86164292193848e-08,1.04231824505223e-06,-3.25414633031593e-06,2.37350161623599e-06,1.74930216740691e-06,-5.52627070188461e-07,2.81750700430865e-07,-1.18733018958554e-06,-3.8749357070066e-07,-3.56644876633324e-07,-1.86427461659786e-06,6.60152427395374e-08,-4.62148153573004e-07,-7.06858947544088e-07,1.59947484653667e-06,-7.46151981089319e-08,-2.11670759631112e-07,4.26310012700263e-07,1.38310987178644e-06,1.10871271215391e-06,-1.60820942526831e-06,1.33094243399714e-06,1.10797300273579e-06,1.99520936750032e-07,7.11353749881084e-06,-2.66801155600452e-06,1.62224344099763e-07,1.16734794247064e-06,3.20009623595464e-06,-6.32040494484454e-07,1.21795473383373e-06,7.81791384374761e-08,5.18315720152195e-06,-9.56594464185876e-07,3.97621410929209e-06,-1.80535008980229e-07,4.95647158273223e-06,5.10652549779513e-07,3.67318142776037e-06,1.83872664325398e-09,2.66491682898822e-06,-2.24189646820886e-07,1.70930304007478e-06,-2.60136067553705e-07,3.26247691498851e-06,-2.39649581504276e-06,9.73724399808003e-06,-3.42428133961565e-06
8.49436311458535e-06,-4.85626823946858e-07,1.37505622745948e-06,-7.30883954552833e-07,3.07284635381162e-06,-5.42307672804139e-07,3.06076228698777e-06,-4.27714462043992e-07,2.16727965184187e-06,-2.08503573237141e-07,9.96347666455865e-06,-4.87794703869267e-06,2.28362089740797e-06,1.22373393346624e-07,2.94222638729882e-06,-2.88245459585644e-09,-7.38408479368776e-07,-2.60239155838383e-06,1.91711148254351e-06,-2.94847708353796e-07,3.59188143445565e-07,9.25794776919754e-10,2.34024755145214e-06,-1.52744943754642e-06,1.14312232288977e-07,1.03682990517363e-06,-3.22977700699078e-06,2.37535836515324e-06,1.73882432120374e-06,-5.66783549531224e-07,4.18755291170891e-07,-1.28033153971116e-06,-3.22266862423957e-07,-3.68297382853829e-07,-1.83134962103375e-06,1.13210695490683e-07,-3.90218810545167e-07,-7.23734927231988e-07,1.67118663790995e-06,-6.02833741319147e-08,-1.76932099400693e-07,4.43534676753333e-07,1.36220014617216e-06,1.15038718549145e-06,-1.67044847013323e-06,1.4765094863169e-06,1.15544762587614e-06,1.70541337946459e-07,7.19010657449115e-06,-2.75476168494889e-06,6.61862800361644e-08,1.21302892694772e-06,3.18789676299133e-06,-6.29845861804151e-07,1.213031852891e-06,8.45654389807344e-08,5.11474141994179e-06,-9.33712468792068e-07,3.96951778931459e-06,-1.80405719178721e-07,4.85301363799878e-06,9.10380123652442e-07,3.71038659539108e-06,-2.90951769294316e-08,2.66605584300717e-06,-2.34822952038509e-07,1.71067026548874e-06,-2.68926597842227e-07,3.33237674625815e-06,-2.40998320618948e-06,9.80951794025098e-06,-3.40653621716244e-06
8.51003106403272e-06,-4.75384680395755e-07,1.44602180988905e-06,-7.17389587799543e-07,3.12518031015552e-06,-5.15226049423164e-07,3.09185510669238e-06,-4.39416302727602e-07,2.16230935273291e-06,-2.11822857324701e-07,9.7706807410689e-06,-4.85758351799816e-06,2.24534219185114e-06,1.03607625250933e-07,2.9387958942436e-06,-1.72636034397533e-08,-9.09139730801928e-07,-2.65583934321678e-06,1.97542410813907e-06,-3.54711638604401e-07,3.61990728966809e-07,-1.77518633414597e-08,2.44466000756302e-06,-1.59972354143254e-06,1.59770141140567e-07,1.02682171226686e-06,-3.20218600294826e-06,2.37968145756358e-06,1.72726837796569e-06,-5.81239329305176e-07,5.52853990304765e-07,-1.37381544520427e-06,-2.57389088974556e-07,-3.79981082630089e-07,-1.79366195994754e-06,1.57627479504925e-07,-3.17800141952476e-07,-7.39599463169432e-07,1.74099658228577e-06,-4.42622728553155e-08,-1.41669907990333e-07,4.60578756582782e-07,1.33683357514494e-06,1.19251631781378e-06,-1.7304036023264e-06,1.6243426308339e-06,1.20086412427857e-06,1.41028187705072e-07,7.26052923232196e-06,-2.84234539060344e-06,-3.2329786782201e-08,1.25736347168353e-06,3.17310001471326e-06,-6.2730342714073e-07,1.20843656027972e-06,9.1174147741664e-08,5.04395059103662e-06,-9.10598615009052e-07,3.95984312885726e-06,-1.80209370476111e-07,4.73757016303391e-06,1.35517515835291e-06,3.74339175888992e-06,-6.0440324950324e-08,2.66291413094935e-06,-2.46674510351637e-07,1.70779250549971e-06,-2.78526968199198e-07,3.40090738098397e-06,-2.42266916781872e-06,9.87165133724944e-06,-3.38689221528452e-06
8.52072102343692e-06,-4.65420648275978e-07,1.51918280394566e-06,-7.02640968590452e-07,3.17661991711226e-06,-4.87097499201475e-07,3.12159784023311e-06,-4.50947560663693e-07,2.15697153977057e-06,-2.14305473524018e-07,9.56406738215575e-06,-4.83145614441795e-06,2.20559131975675e-06,8.48873406614964e-08,2.9322816669215e-06,-3.16528438780756e-08,-1.07927023797056e-06,-2.70675895133825e-06,2.03223842433568e-06,-4.13626215333985e-07,3.62524324523955e-07,-3.74306423156835e-08,2.54641603183683e-06,-1.67322757561146e-06,2.05019595837187e-07,1.01214022397376e-06,-3.17131344214734e-06,2.38647466682905e-06,1.71474387041432e-06,-5.95960905155434e-07,6.83771899676544e-07,-1.46747687225289e-06,-1.92987430555077e-07,-3.91695966213377e-07,-1.75129631169162e-06,1.99159848623554e-07,-2.45062040268539e-07,-7.54451339872883e-07,1.8086413139961e-06,-2.65923955254204e-08,-1.06022726199746e-07,4.77435262714719e-07,1.30714834334237e-06,1.23487274728749e-06,-1.78801436766753e-06,1.77408278330553e-06,1.24409364834642e-06,1.11029906578075e-07,7.32485989673518e-06,-2.93069447768258e-06,-1.33213347029534e-07,1.3002289531589e-06,3.15571895961216e-06,-6.24389273384551e-07,1.20416690350301e-06,9.79686180818368e-08,4.97096810216207e-06,-8.87367181407503e-07,3.94714159198762e-06,-1.79993745561928e-07,4.6116277453881e-06,1.84391311096584e-06,3.7720358194442e-06,-9.21436504839475e-08,2.65544170222885e-06,-2.5973380746132e-07,1.70063050246631e-06,-2.88921074262205e-07,3.46765842477749e-06,-2.43459805079772e-06,9.92327854906819e-06,-3.36541438366356e-06
8.52636633647959e-06,-4.55798674278286e-07,1.59439418241366e-06,-6.86679580896285e-07,3.22693338417399e-06,-4.58037445950414e-07,3.14997355194186e-06,-4.62306652391968e-07,2.15139039666735e-06,-2.15964735899652e-07,9.34385006060596e-06,-4.7995568373648e-06,2.16450100004482e-06,6.62326535036833e-08,2.92281039691592e-06,-4.6028981210013e-08,-1.24828689042069e-06,-2.75501266358433e-06,2.08735148686417e-06,-4.71393105707115e-07,3.60772830957652e-07,-5.80663575724578e-08,2.64536646658033e-06,-1.74784554419166e-06,2.50088962513268e-07,9.92658323350403e-07,-3.13711091151021e-06,2.39572526009634e-06,1.70135286539837e-06,-6.10912125225218e-07,8.11250350490514e-07,-1.56101410390664e-06,-1.29189804875006e-07,-4.03440983034146e-07,-1.70436043523892e-06,2.37715202250829e-07,-1.72178372943822e-07,-7.68293115265615e-07,1.87386589156758e-06,-7.32507133300456e-09,-7.0136283467341e-08,4.94099470739674e-07,1.27329989555065e-06,1.27722406381116e-06,-1.84322593382648e-06,1.92534343649451e-06,1.28501240971424e-06,8.05969939926266e-08,7.38316413877574e-06,-3.0197348103187e-06,-2.36347289827969e-07,1.34150869218059e-06,3.13577323638041e-06,-6.21081034847949e-07,1.20021375748983e-06,1.04910117900036e-07,4.89597885072686e-06,-8.64133565709321e-07,3.93137194402809e-06,-1.79807421779983e-07,4.47671655673359e-06,2.3752000552409e-06,3.79617295901653e-06,-1.24148360139544e-07,2.64360668939082e-06,-2.73980246993263e-07,1.68916525833021e-06,-3.00087169516273e-07,3.5322230778032e-06,-2.44580947300664e-06,9.96406036111488e-06,-3.3421710122038e-06
8.52690718443391e-06,-4.46582287317409e-07,1.67148899582922e-06,-6.69554757034562e-07,3.2758874760596e-06,-4.28168475320667e-07,3.17696037983466e-06,-4.73492072241537e-07,2.14567953483921e-06,-2.16816400887361e-07,9.11028689441566e-06,-4.76189865541177e-06,2.12220011917223e-06,4.76636124629104e-08,2.91051609251582e-06,-6.03705967648836e-08,-1.41569253568134e-06,-2.80047065781937e-06,2.14056156962414e-06,-5.27819041333124e-07,3.5673000887844e-07,-7.96101130745925e-08,2.74136767383037e-06,-1.82345125472891e-06,2.95004307458205e-07,9.68276939142815e-07,-3.09953977395759e-06,2.40740187592345e-06,1.6871894925965e-06,-6.26054453038302e-07,9.35048327529588e-07,-1.654131087642e-06,-6.61243793491331e-08,-4.15213986222769e-07,-1.65298438684733e-06,2.73214104569976e-07,-9.93259866439974e-08,-7.81130979918079e-07,1.93642494598076e-06,1.3477662723518e-08,-3.41625815747742e-08,5.10568633157616e-07,1.23546052928121e-06,1.31933384121308e-06,-1.89598877615837e-06,2.07771203837765e-06,1.32350234845207e-06,4.97817911988748e-08,7.43551754225251e-06,-3.10938578645957e-06,-3.41608031856639e-07,1.38109264688705e-06,3.11328926570988e-06,-6.17358053047647e-07,1.19656100397167e-06,1.11958094459992e-07,4.81916863132034e-06,-8.41013555525196e-07,3.91250085764903e-06,-1.79699413694585e-07,4.33439769276976e-06,2.94738327539987e-06,3.81567358447837e-06,-1.56394209951333e-07,2.62739548890418e-06,-2.89383161509557e-07,1.67339818563346e-06,-3.11997989983731e-07,3.59420073689642e-06,-2.45633818354782e-06,9.99368532927439e-06,-3.31723350491891e-06
8.52229114320881e-06,-4.37834378534509e-07,1.75027955177277e-06,-6.51323557847256e-07,3.32325013992594e-06,-3.97619673333937e-07,3.20253180660496e-06,-4.84502434575927e-07,2.13994146625981e-06,-2.1687863187893e-07,8.8636809091989e-06,-4.71851579945317e-06,2.07881353723159e-06,2.92000751867253e-08,2.89553913746692e-06,-7.46561662515274e-08,-1.5810077356131e-06,-2.84301151642789e-06,2.19166936729458e-06,-5.82716984419166e-07,3.50399581535668e-07,-1.02008592685272e-07,2.83428220229867e-06,-1.89990910075395e-06,3.39788184937616e-07,9.38926612995401e-07,-3.05856951654327e-06,2.42145266896758e-06,1.67233957521776e-06,-6.41347222940125e-07,1.05494387027639e-06,-1.74653966902365e-06,-3.91906825075135e-09,-4.27011672032233e-07,-1.59731956836932e-06,3.05590278268297e-07,-2.66836877032271e-08,-7.92974589917543e-07,1.99608382000208e-06,3.57432522214374e-08,1.74110131798245e-09,5.26841664685207e-07,1.19381883687216e-06,1.36096277174313e-06,-1.946258582185e-06,2.23075189671992e-06,1.35945178981697e-06,1.86382399001263e-08,7.48200457879183e-06,-3.19955984780625e-06,-4.48865652034042e-07,1.41887804933039e-06,3.08830034700224e-06,-6.13201526962805e-07,1.19318577495925e-06,1.19070453350179e-07,4.74072355026063e-06,-8.18122585984044e-07,3.89050351518764e-06,-1.79718817460973e-07,4.18624995637758e-06,3.55856413275751e-06,3.83042518818408e-06,-1.88817815373055e-07,2.60681279962873e-06,-3.05901899507426e-07,1.65335114076141e-06,-3.24620915893319e-07,3.65319958471675e-06,-2.46621399521193e-06,1.00118709850901e-05,-3.29067622973457e-06
8.51247375410786e-06,-4.29616984073568e-07,1.83055878377423e-06,-6.3205059384464e-07,3.3687931237208e-06,-3.66525914329216e-07,3.22665700295329e-06,-4.95336515617291e-07,2.13426718452586e-06,-2.16171961528158e-07,8.60438006291986e-06,-4.66946348144964e-06,2.03446196985555e-06,1.08615844152185e-08,2.87802535599653e-06,-8.88641764393377e-08,-1.74377230746444e-06,-2.88252268227692e-06,2.24047919464154e-06,-6.35907223712154e-07,3.41795302568587e-07,-1.25204383572989e-07,2.9239794110988e-06,-1.97707485957047e-06,3.84458447078045e-07,9.04568899731131e-07,-3.01417628134552e-06,2.43780392869419e-06,1.65688036800189e-06,-6.56747886354824e-07,1.17073540161698e-06,-1.83796163661591e-06,5.72989851288214e-08,-4.38829516209844e-07,-1.53753762055832e-06,3.3479057788897e-07,4.55687940846074e-08,-8.03836877784572e-07,2.05261969724177e-06,5.93888870601216e-08,3.74132795545838e-08,5.42918798495095e-07,1.14857898368127e-06,1.40186991745753e-06,-1.99399634252117e-06,2.3840045698458e-06,1.39275608515569e-06,-1.27783611618065e-08,7.52271750565878e-06,-3.29016203039001e-06,-5.57984029257474e-07,1.45476997482638e-06,3.06084672692469e-06,-6.08594650296317e-07,1.19005875858675e-06,1.26203846271178e-07,4.66082946011144e-06,-7.95574988946244e-07,3.86536419436053e-06,-1.79914459698666e-07,4.0338559278659e-06,4.20661357007382e-06,3.8403331144523e-06,-2.21352989293193e-07,2.58188156197072e-06,-3.23485989521296e-07,1.62906633825383e-06,-3.37918168444703e-07,3.70883912823026e-06,-2.47546177734273e-06,1.00183648950947e-05,-3.26257634130365e-06
8.49741909097247e-06,-4.21991070700004e-07,1.9121017913665e-06,-6.11807789015776e-07,3.41229454417203e-06,-3.35027104605708e-07,3.24930123521623e-06,-5.05993294169175e-07,2.12873585129805e-06,-2.14719251141395e-07,8.33277702849301e-06,-4.61481766217985e-06,1.98926193884628e-06,-7.33275209570131e-09,2.85812508918542e-06,-1.02973239602989e-07,-1.90354664556044e-06,-2.91890086082366e-06,2.2868001720175e-06,-6.87218396162081e-07,3.30940984444231e-07,-1.49136326832747e-07,3.01033603343045e-06,-2.05479649133843e-06,4.29027080984658e-07,8.65197590907027e-07,-2.96634169651202e-06,2.45635930885933e-06,1.64088040288483e-06,-6.72212247445054e-07,1.28224291829387e-06,-1.92813049083924e-06,1.17403940042525e-07,-4.50661711538037e-07,-1.47382917531482e-06,3.60774939525783e-07,1.17251847904408e-07,-8.13733845633403e-07,2.10582271484827e-06,8.43218342233569e-08,7.26893888636399e-08,5.58801216278244e-07,1.09995983071362e-06,1.44181406872613e-06,-2.03916857079237e-06,2.53699266257593e-06,1.42331823130376e-06,-4.44116013134878e-08,7.55775530079998e-06,-3.38108956422053e-06,-6.68820991955255e-07,1.48868184372749e-06,3.03097563205589e-06,-6.03522733699008e-07,1.18714456422078e-06,1.33313961733921e-07,4.57967140893227e-06,-7.73483244322771e-07,3.83707682260672e-06,-1.80334553987826e-07,3.87878735187242e-06,4.88919029909045e-06,3.84532122187585e-06,-2.53931100991361e-07,2.55264280047465e-06,-3.42075382683827e-07,1.60060614515522e-06,-3.51847039664308e-07,3.760752646141e-06,-2.48410149876716e-06,1.00129455681818e-05,-3.23301357673597e-06
8.47710030770164e-06,-4.15016324459707e-07,1.99466753168579e-06,-5.90674089189944e-07,3.45354136591986e-06,-3.03267387771792e-07,3.27042632857079e-06,-5.16471991003917e-07,2.12341458416272e-06,-2.12545646307044e-07,8.04930873156855e-06,-4.55467466267811e-06,1.94332578489868e-06,-2.53643755312009e-08,2.83599228839909e-06,-1.16962205156838e-07,-2.05991282253546e-06,-2.95205236679078e-06,2.33044738952488e-06,-7.36488435170319e-07,3.17870483951967e-07,-1.73739889995679e-07,3.09323668060277e-06,-2.13291493941452e-06,4.73499081050726e-07,8.20839751455315e-07,-2.91505209304945e-06,2.47699973721032e-06,1.62439943966236e-06,-6.87694686934972e-07,1.38930898012007e-06,-2.01679285876257e-06,1.76271802945815e-07,-4.62501111516146e-07,-1.40640248370418e-06,3.83516303798745e-07,1.88187020634406e-07,-8.22684345078552e-07,2.1554970523792e-06,1.10439839632254e-07,1.07402960654222e-07,5.74490662567271e-07,1.04819391790394e-06,1.48055519322665e-06,-2.08174760022557e-06,2.68922293694994e-06,1.4510494659171e-06,-7.62042055015271e-08,7.58722265137623e-06,-3.47223153062649e-06,-7.81228490527931e-07,1.52053586096556e-06,2.99874126781877e-06,-5.97973317513976e-07,1.18440214395256e-06,1.40355813753537e-07,4.49743310880183e-06,-7.51957247559193e-07,3.80564548988134e-06,-1.81026368423594e-07,3.72259008281876e-06,5.60376135378938e-06,3.84533243315463e-06,-2.86481446566688e-07,2.51915537553103e-06,-3.6160077307943e-07,1.56805275725487e-06,-3.6636015322286e-07,3.80858951423788e-06,-2.49214831232878e-06,9.99542321091255e-06,-3.20207002628483e-06
8.4515001591474e-06,-4.08750942493497e-07,2.0780006455543e-06,-5.68735117129052e-07,3.49233176578526e-06,-2.71394317318355e-07,3.28999118028961e-06,-5.26772107051152e-07,2.11835834470013e-06,-2.09678528202728e-07,7.75445564821727e-06,-4.48915065492429e-06,1.89676173899135e-06,-4.32153809554945e-08,2.81178363491627e-06,-1.30810267828977e-07,-2.21247546895676e-06,-2.98189341450518e-06,2.37124304149108e-06,-7.83565443019182e-07,3.02627644625812e-07,-1.98947556803004e-07,3.1725743015759e-06,-2.2112649420891e-06,5.17871370294718e-07,7.71556557640875e-07,-2.86029815674372e-06,2.49958400138639e-06,1.60748851985367e-06,-7.03148373904931e-07,1.49179945029198e-06,-2.10370950412815e-06,2.33780986137835e-07,-4.74339184274553e-07,-1.33548194360704e-06,4.03000516953392e-07,2.58198044796128e-07,-8.30709849045266e-07,2.20146199093066e-06,1.37631596357442e-07,1.413868295304e-07,5.8998905751648e-07,9.93526315178472e-07,1.51785597159917e-06,-2.12171191637646e-06,2.8401896522521e-06,1.47586983944838e-06,-1.08098284903099e-07,7.61122901304357e-06,-3.56346858397591e-06,-8.95052802118158e-07,1.55026340178185e-06,2.96420479170365e-06,-5.91936284722957e-07,1.18178526775054e-06,1.47284025658165e-07,4.4142964346566e-06,-7.31103606330394e-07,3.77108491387685e-06,-1.82035906889851e-07,3.56676890940248e-06,6.34762452407129e-06,3.84032916595434e-06,-3.18931620064404e-07,2.48149565242518e-06,-3.81983992242389e-07,1.53150776232592e-06,-3.81405753925799e-07,3.85201738699873e-06,-2.4996126731209e-06,9.96564033524848e-06,-3.16982988075102e-06
8.42061149515947e-06,-4.0325142755488e-07,2.16183340311787e-06,-5.46082776725792e-07,3.52847736578508e-06,-2.3955800192142e-07,3.30795232026688e-06,-5.36893460491919e-07,2.11360992790324e-06,-2.06147460358257e-07,7.44874087266401e-06,-4.41838103798127e-06,1.84967405087877e-06,-6.08686103791586e-08,2.78565769622924e-06,-1.44497071707541e-07,-2.36086243154126e-06,-3.00835035170029e-06,2.40901751881251e-06,-8.28308478300804e-07,2.85266198445187e-07,-2.24689230512997e-07,3.24825061491224e-06,-2.28967586555434e-06,5.62131787396188e-07,7.17443925738983e-07,-2.80207502864763e-06,2.52394993394938e-06,1.59019012369274e-06,-7.18525466723317e-07,1.58960396376347e-06,-2.18865592726602e-06,2.89812881301095e-07,-4.86165979433145e-07,-1.26130655605847e-06,4.19226219929201e-07,3.27111849885476e-07,-8.37834220557322e-07,2.24355293784624e-06,1.6577727639796e-07,1.74474364418685e-07,6.05298119538254e-07,9.36213335398819e-07,1.55348343054229e-06,-2.15904648065167e-06,2.98937804777914e-06,1.49770876444751e-06,-1.40035590479192e-07,7.62988775504189e-06,-3.65467274356798e-06,-1.01013478100406e-06,1.57780535779403e-06,2.92743426616504e-06,-5.85403982420448e-07,1.17924304797076e-06,1.54053107934886e-07,4.33044096069507e-06,-7.11024975712254e-07,3.73342085066389e-06,-1.83407605526233e-07,3.41277251038712e-06,7.11793224473072e-06,3.83029363777779e-06,-3.51207874960711e-07,2.43975709472663e-06,-4.03138473029754e-07,1.4910915963744e-06,-3.96928023404593e-07,3.89072421587926e-06,-2.50650048107523e-06,9.92347222020723e-06,-3.13637915543331e-06
8.38443772488633e-06,-3.98572384098121e-07,2.24588775248358e-06,-5.22814808657134e-07,3.56180531679779e-06,-2.07910229544497e-07,3.32426451461524e-06,-5.46836222460111e-07,2.10920005287823e-06,-2.01984131072715e-07,7.13272896337051e-06,-4.34251970630367e-06,1.80216317094169e-06,-7.83077318800967e-08,2.7577741261557e-06,-1.58002809556002e-07,-2.5047252156434e-06,-3.03135983730673e-06,2.44361044604676e-06,-8.70588249064277e-07,2.65849628065777e-07,-2.50892647312805e-07,3.32017652207534e-06,-2.36797256182198e-06,6.06258153171359e-07,6.58632924177131e-07,-2.74038283449104e-06,2.54991607254375e-06,1.57253842886831e-06,-7.33777304967238e-07,1.68263612589635e-06,-2.27142259652447e-06,3.44252446359301e-07,-4.9797010982806e-07,-1.18412833634103e-06,4.32204730596511e-07,3.94759548408451e-07,-8.44083481965026e-07,2.2816224107332e-06,1.94749123169582e-07,2.06500713113113e-07,6.20419003136464e-07,8.7652110402614e-07,1.58721067971809e-06,-2.19374297767003e-06,3.13626786724333e-06,1.51650553913143e-06,-1.71957768708604e-07,7.6433153995268e-06,-3.74570726183423e-06,-1.1263101756301e-06,1.60311246311572e-06,2.88850458786613e-06,-5.78371354013793e-07,1.17672050595448e-06,1.60617729822719e-07,4.24604353085234e-06,-6.91819437660537e-07,3.69269043983049e-06,-1.8518404563609e-07,3.26197870255699e-06,7.91171662383405e-06,3.81522803511895e-06,-3.83235467302883e-07,2.39404978524299e-06,-4.24969780049604e-07,1.4469428972204e-06,-4.12867419358671e-07,3.92442008358385e-06,-2.51281323928616e-06,9.86882722063306e-06,-3.1018053896851e-06
8.34299323924954e-06,-3.94766314723771e-07,2.32987745034562e-06,-4.99034299867461e-07,3.59216020588993e-06,-1.76603577059495e-07,3.33888140343307e-06,-5.56600950663871e-07,2.10514755107925e-06,-1.97222292330598e-07,6.80702456921206e-06,-4.26173821740421e-06,1.75432597708312e-06,-9.55173037161679e-08,2.7282929102467e-06,-1.71308316913261e-07,-2.64373922538937e-06,-3.05086896439701e-06,2.47487165779735e-06,-9.1028771281644e-07,2.44450987891174e-07,-2.77483796242202e-07,3.38827250221602e-06,-2.44597625012731e-06,6.50217424067757e-07,5.95289964764998e-07,-2.67522757660232e-06,2.5772836501798e-06,1.55455966562266e-06,-7.48854594578063e-07,1.77083345991211e-06,-2.3518148791763e-06,3.96988800625505e-07,-5.0973874977874e-07,-1.10421069583095e-06,4.4195991570995e-07,4.60977383492063e-07,-8.49485585698138e-07,2.31554097101213e-06,2.24412101024496e-07,2.3730404680241e-07,6.35351953244325e-07,8.14723999276489e-07,1.6188187320831e-06,-2.22579990425341e-06,3.28033680974468e-06,1.53220983758145e-06,-2.0380661781444e-07,7.65163095424446e-06,-3.83642657383642e-06,-1.24341003287113e-06,1.62614561723112e-06,2.84749738025508e-06,-5.70836074550986e-07,1.17415917131678e-06,1.66932984150498e-07,4.16127785170189e-06,-6.73579928548141e-07,3.64894247195136e-06,-1.87405684997784e-07,3.11568014289103e-06,8.72591526118769e-06,3.79515453626299e-06,-4.14938975195829e-07,2.34449987555965e-06,-4.47376206488914e-07,1.39921775791842e-06,-4.29161035579613e-07,3.95283883735414e-06,-2.51854822432432e-06,9.8016469110573e-06,-3.06619732311045e-06
8.29630377321954e-06,-3.91883416568022e-07,2.41351025023627e-06,-4.74849149683767e-07,3.61940575589774e-06,-1.45790512343616e-07,3.3517561601566e-06,-5.66188620150431e-07,2.10145964579152e-06,-1.91897696547286e-07,6.47227083373863e-06,-4.17622486643594e-06,1.70625603552933e-06,-1.12482823105156e-07,2.69737365471985e-06,-1.84395160663769e-07,-2.77760382022104e-06,-3.06683533001284e-06,2.50266212080044e-06,-9.47302597910965e-07,2.21152681341759e-07,-3.04387341939475e-07,3.45246898477117e-06,-2.52350541832763e-06,6.93964936041835e-07,5.27616769694586e-07,-2.60662226256151e-06,2.60583876329412e-06,1.53627255972678e-06,-7.63707589203812e-07,1.85415712818127e-06,-2.4296527441612e-06,4.47915821390486e-07,-5.21457651041291e-07,-1.02182680034764e-06,4.48528047055271e-07,5.25607623701127e-07,-8.54070186221124e-07,2.3451980954618e-06,2.54624596383636e-07,2.66726789144503e-07,6.50095977346564e-07,7.51102999831073e-07,1.64809835561976e-06,-2.25522242926629e-06,3.42106379948772e-06,1.54478215705553e-06,-2.35524341138855e-07,7.6549553300878e-06,-3.92667632908601e-06,-1.36126119554184e-06,1.6468762075712e-06,2.80450083102924e-06,-5.62798671667847e-07,1.17149770507391e-06,1.72954644070012e-07,4.07631409691984e-06,-6.56393717058716e-07,3.60223757014879e-06,-1.90110609743409e-07,2.97507074230265e-06,9.55739732236138e-06,3.77011518167171e-06,-4.46242594504222e-07,2.29124896620247e-06,-4.70249436602761e-07,1.34808888304863e-06,-4.4574297997149e-07,3.97573951516803e-06,-2.52369867097126e-06,9.7219060564474e-06,-3.02964455302902e-06
8.24440669201093e-06,-3.89971378268846e-07,2.49649012447337e-06,-4.50371496120766e-07,3.64342629241161e-06,-1.1562249555118e-07,3.36284216027969e-06,-5.75600650528473e-07,2.09813231725341e-06,-1.86048032240542e-07,6.12914757891893e-06,-4.0861836756033e-06,1.65804388545252e-06,-1.29190759693812e-07,2.66517491839365e-06,-1.97245721988033e-07,-2.90604220727443e-06,-3.07922705420456e-06,2.52685481322106e-06,-9.81541865128389e-07,1.96046193955859e-07,-3.31527046585341e-07,3.51270669977435e-06,-2.60037674266838e-06,7.37443743078579e-07,4.55850110252089e-07,-2.53458811170766e-06,2.63535458381876e-06,1.51768885459228e-06,-7.78286270753905e-07,1.9325914517868e-06,-2.50477030353865e-06,4.96932735715842e-07,-5.33111176373041e-07,-9.37257906332212e-07,4.51957643044378e-07,5.88499395020079e-07,-8.57868413442236e-07,2.37050297637646e-06,2.85239163163068e-07,2.94616816633646e-07,6.64648538794341e-07,6.85943987744687e-07,1.67485188840055e-06,-2.28202199045095e-06,3.55793200063123e-06,1.55419421475909e-06,-2.67053792663439e-07,7.65341083274974e-06,-4.0162935024295e-06,-1.47968687991126e-06,1.665286418994e-06,2.75960945868874e-06,-5.54262611536102e-07,1.16867254030327e-06,1.78639409348432e-07,3.99131851925726e-06,-6.40341933265608e-07,3.55264828367731e-06,-1.93334307858864e-07,2.84123313562724e-06,1.04029891823112e-05,3.74017159457761e-06,-4.77070415363977e-07,2.23445342141429e-06,-4.93475268403581e-07,1.29374465358411e-06,-4.62544767834176e-07,3.99290757096544e-06,-2.52825397713246e-06,9.62961241253178e-06,-2.99223718125743e-06
8.18735119325072e-06,-3.89075178489509e-07,2.57851949897083e-06,-4.25717106557139e-07,3.66412796575709e-06,-8.62490857995949e-08,3.37209365050096e-06,-5.8483892895934e-07,2.09515075033999e-06,-1.79712858936483e-07,5.7783692770982e-06,-3.99183330679791e-06,1.60977734047767e-06,-1.45628574054535e-07,2.63185359030034e-06,-2.09843273827866e-07,-3.0288011871454e-06,-3.0880227513126e-06,2.54733556439927e-06,-1.01292811853866e-06,1.69231784858972e-07,-3.58826187386547e-07,3.56893701380529e-06,-2.67640602915497e-06,7.80584058691093e-07,3.80261311657353e-07,-2.45915569593192e-06,2.66559353148622e-06,1.49881390462789e-06,-7.92540530521452e-07,2.0061432463468e-06,-2.57701524746179e-06,5.43944702624937e-07,-5.44682349221282e-07,-8.50791678572866e-07,4.52309304866999e-07,6.49509447054778e-07,-8.60912649738292e-07,2.39138524478794e-06,3.16103304399747e-07,3.20828621803513e-07,6.79005276454426e-07,6.19536049928807e-07,1.69889495247385e-06,-2.30621564458709e-06,3.69043155709619e-06,1.56042928931687e-06,-2.98338709111897e-07,7.64712071954205e-06,-4.10510657993834e-06,-1.59850731239187e-06,1.68136951191747e-06,2.71292380195852e-06,-5.45234336758371e-07,1.16561853576263e-06,1.83945139450334e-07,3.90645306967394e-06,-6.25499147867388e-07,3.5002590946653e-06,-1.97109463945163e-07,2.71512755139087e-06,1.12594989976043e-05,3.70540456176792e-06,-5.07346686426967e-07,2.17428362287838e-06,-5.16934386089566e-07,1.23638810830261e-06,-4.79495727714962e-07,4.00415591036799e-06,-2.53219993348603e-06,9.52480636856507e-06,-2.95406546080082e-06
8.12519842196795e-06,-3.89236886500142e-07,2.65930148222319e-06,-4.01004737137484e-07,3.68143972295728e-06,-5.78170592930309e-08,3.37946641172025e-06,-5.93905828105188e-07,2.09248986284202e-06,-1.72933541016037e-07,5.42068282396946e-06,-3.8934059064775e-06,1.56154180199664e-06,-1.61784722415714e-07,2.59756431655084e-06,-2.22172053093125e-07,-3.14565077055515e-06,-3.09321145727343e-06,2.56400384311162e-06,-1.04139796003234e-06,1.40818139463852e-07,-3.86207965733292e-07,3.62112226288977e-06,-2.75140918186089e-06,8.23302811200134e-07,3.01155518114644e-07,-2.38036590163315e-06,2.69630936307872e-06,1.47964733124576e-06,-8.06420349831831e-07,2.0748409849355e-06,-2.64624820910951e-06,5.88863381095556e-07,-5.5615291727907e-07,-7.62720498274747e-07,4.49655557523531e-07,7.08502855158859e-07,-8.63236314330439e-07,2.40779561224239e-06,3.47060282911774e-07,3.4522443352959e-07,6.93159756258411e-07,5.52169813680746e-07,1.72005801401748e-06,-2.32782524007262e-06,3.81806209856385e-06,1.56348250273944e-06,-3.29323923745506e-07,7.63620881392431e-06,-4.19293581873821e-06,-1.71754041423735e-06,1.69513005871473e-06,2.66455003547944e-06,-5.35723256016714e-07,1.16226963673636e-06,1.88831071161064e-07,3.82187501851519e-06,-6.11932998328494e-07,3.44516633701116e-06,-2.01465774571476e-07,2.59758237612041e-06,1.21237397395316e-05,3.66591348641312e-06,-5.36996074196319e-07,2.11092316539436e-06,-5.40503170762048e-07,1.17623584954313e-06,-4.96523417073511e-07,4.00932574385704e-06,-2.53551897804035e-06,9.40756044821953e-06,-2.91521945428577e-06
8.05802149207771e-06,-3.90495464875131e-07,2.73854206845482e-06,-3.76355465104015e-07,3.69531402140008e-06,-3.04695451954435e-08,3.38491840824042e-06,-6.0280421819219e-07,2.09011490996242e-06,-1.65753180024956e-07,5.05686512261997e-06,-3.79114589231152e-06,1.51342057833556e-06,-1.77648650418594e-07,2.56245897718291e-06,-2.34217327734373e-07,-3.2563836869824e-06,-3.09479251744169e-06,2.57677347436499e-06,-1.0669022775461e-06,1.10921983670337e-07,-4.13595903853679e-07,3.66923608631321e-06,-2.82520319814193e-06,8.6550332232502e-07,2.18870714457e-07,-2.29827060871606e-06,2.72724912735113e-06,1.4601837300368e-06,-8.19875978074544e-07,2.13873379716336e-06,-2.71234208047863e-06,6.31607477978933e-07,-5.67503427741239e-07,-6.73339772087859e-07,4.44080700015846e-07,7.65353660060112e-07,-8.64873658689789e-07,2.41970642319792e-06,3.77949955585225e-07,3.67675286970172e-07,7.07103259651832e-07,4.84135847054771e-07,1.73818774922714e-06,-2.34687652009352e-06,3.94033510369482e-06,1.56336103692188e-06,-3.59955558393431e-07,7.62079916808323e-06,-4.2795935826302e-06,-1.83660253725741e-06,1.70658413777661e-06,2.61459951861544e-06,-5.25741693413736e-07,1.15855953454282e-06,1.93258019401586e-07,3.73773656533473e-06,-5.9970385742435e-07,3.38747802182124e-06,-2.06429784233112e-07,2.48928668169835e-06,1.2992550344014e-05,3.62181572200546e-06,-5.65943924064105e-07,2.04456799576858e-06,-5.64054540490424e-07,1.11351687920471e-06,-5.13554044815107e-07,4.00828725574264e-06,-2.53819047116031e-06,9.27797867990555e-06,-2.87578871490429e-06
7.98590540080854e-06,-3.92886574740042e-07,2.81595229123566e-06,-3.51891998182381e-07,3.70572726753311e-06,-4.34518614517035e-09,3.38841041235307e-06,-6.11537472578092e-07,2.08798215586303e-06,-1.58216544691213e-07,4.68772048292093e-06,-3.68530869113797e-06,1.4654952015763e-06,-1.93210780238432e-07,2.5266862098039e-06,-2.45965458639847e-07,-3.36081481077483e-06,-3.09277543987977e-06,2.58557327023241e-06,-1.08940646729199e-06,7.96676567993099e-08,-4.40914224400278e-07,3.71326375346344e-06,-2.89760718293894e-06,9.07075115954609e-07,1.33776504818581e-07,-2.21293299285779e-06,2.75815491263897e-06,1.44041341420352e-06,-8.32858106430531e-07,2.19789031429663e-06,-2.77518129442204e-06,6.72103268847256e-07,-5.7871331265781e-07,-5.8294624902578e-07,4.35680660141682e-07,8.1994544402317e-07,-8.65859575147435e-07,2.42711210544732e-06,4.08609626929385e-07,3.88062032948772e-07,7.20824612413861e-07,4.15723149489891e-07,1.7531481890716e-06,-2.36339826579123e-06,4.05677622202034e-06,1.56008427787039e-06,-3.90181192164527e-07,7.60101575921777e-06,-4.36488475474074e-06,-1.95550925513309e-06,1.71575948296967e-06,2.56318828264816e-06,-5.15304805246343e-07,1.15442231489497e-06,1.97188560260764e-07,3.65418442202813e-06,-5.8886454111307e-07,3.3273135619644e-06,-2.12024742224161e-07,2.39078492872979e-06,1.38628147069133e-05,3.57324579351087e-06,-5.9411652722534e-07,1.97542549478292e-06,-5.87458812534283e-07,1.04847136971726e-06,-5.30512897501112e-07,4.00094008379482e-06,-2.54019098470176e-06,9.13619584248369e-06,-2.83586199704557e-06
7.90894681954756e-06,-3.96442384983789e-07,2.8912503014658e-06,-3.27737965441866e-07,3.7126799614143e-06,2.04226694794094e-08,3.38990659184902e-06,-6.20109466646882e-07,2.08603959944019e-06,-1.50369997233863e-07,4.31407783859282e-06,-3.57615943719811e-06,1.41784573236541e-06,-2.0846249564715e-07,2.49039097545248e-06,-2.57403956257255e-07,-3.45878053144146e-06,-3.08717971901032e-06,2.59034757143212e-06,-1.10889060169321e-06,4.71866395455144e-08,-4.68088208135793e-07,3.75320247130876e-06,-2.96844337290482e-06,9.47893863054722e-07,4.62726523244052e-08,-2.12442741989043e-06,2.78876535301879e-06,1.42032317773411e-06,-8.45318036348133e-07,2.25239736859558e-06,-2.83466108893756e-06,7.10285085654896e-07,-5.89760983604236e-07,-4.91836347590994e-07,4.24562843640479e-07,8.72171841420614e-07,-8.66229419295315e-07,2.43002950489849e-06,4.38874917242176e-07,4.06276277951596e-07,7.34310054880649e-07,3.47217748381083e-07,1.76482163216647e-06,-2.37742154482981e-06,4.16692761666235e-06,1.55368388289519e-06,-4.1995000719166e-07,7.57698220187338e-06,-4.44860722496532e-06,-2.07407620318928e-06,1.72269557478516e-06,2.51043646117063e-06,-5.04430469173458e-07,1.14979308691209e-06,2.00587195487969e-07,3.57135936140752e-06,-5.79460056133028e-07,3.26480339163019e-06,-2.18270479952488e-07,2.30247387085109e-06,1.47314784259881e-05,3.52035451232937e-06,-6.21441394431008e-07,1.90371350150567e-06,-6.1058457927191e-07,9.81349375709018e-07,-5.47324765906352e-07,3.9872136094219e-06,-2.54149460043581e-06,8.98237659163838e-06,-2.79552699932567e-06
7.82725374943228e-06,-4.0119138759352e-07,2.9641633450187e-06,-3.04017194714831e-07,3.7161965364486e-06,4.37067370356701e-08,3.38937504985694e-06,-6.28524570231398e-07,2.08422774140758e-06,-1.42261413989171e-07,3.936787788797e-06,-3.4639716387446e-06,1.37055104303833e-06,-2.23396128106621e-07,2.4537141639163e-06,-2.68521531863791e-07,-3.55013809157392e-06,-3.07803463388042e-06,2.59105670108259e-06,-1.12534955137985e-06,1.36170346360737e-08,-4.95044525130834e-07,3.78906166526445e-06,-3.03753816561823e-06,9.87821469897926e-07,-4.32126141939645e-08,-2.03283900886048e-06,2.81881696471401e-06,1.39989706336999e-06,-8.57207842510523e-07,2.30235855502655e-06,-2.89068677049718e-06,7.4609576800081e-07,-6.00623935903832e-07,-4.0030449718571e-07,4.10845969468601e-07,9.21936982931102e-07,-8.66018845995926e-07,2.42849809500266e-06,4.6858063987378e-07,4.22221250658573e-07,7.47543153120748e-07,2.78901405349626e-07,1.77310932937074e-06,-2.38897907154841e-06,4.27035032909737e-06,1.54420376923392e-06,-4.49212912672487e-07,7.54882145889839e-06,-4.53055244672961e-06,-2.19211994915487e-06,1.72744365228871e-06,2.45646767171879e-06,-4.93139151234935e-07,1.14460858683651e-06,2.0342049902383e-07,3.48939573320512e-06,-5.71527390224511e-07,3.20008848261061e-06,-2.25183307225847e-07,2.22460141562736e-06,1.55955634590677e-05,3.46330799494436e-06,-6.47847536368833e-07,1.82965927986761e-06,-6.3329958703288e-07,9.12409494298573e-07,-5.63914368681075e-07,3.96706706629591e-06,-2.54207321578361e-06,8.81671447575038e-06,-2.75487013964205e-06
7.74094503817439e-06,-4.07158221229403e-07,3.03442961946282e-06,-2.80852982393514e-07,3.71632489710853e-06,6.53865215096135e-08,3.38678831000236e-06,-6.3678763383422e-07,2.08248038205625e-06,-1.33940098438255e-07,3.55671947786866e-06,-3.34902582044395e-06,1.32368906999974e-06,-2.38004944916026e-07,2.41679223811925e-06,-2.79308143354961e-07,-3.63476491081943e-06,-3.06537902428208e-06,2.58767732770583e-06,-1.13879305346608e-06,-2.08970000321662e-08,-5.21711535864499e-07,3.82086323173795e-06,-3.10472315190858e-06,1.02670631741814e-06,-1.34224519011978e-07,-1.93826301787952e-06,2.84804547434876e-06,1.37911712449684e-06,-8.6848053173658e-07,2.34789266986123e-06,-2.94317299023609e-06,7.79487077434722e-07,-6.11278863168674e-07,-3.08641507539025e-07,3.94659891368938e-07,9.69155874581822e-07,-8.65263658578385e-07,2.4225800568379e-06,4.97561681928039e-07,4.35812592540013e-07,7.60504752782588e-07,2.11050423533267e-07,1.77793195517226e-06,-2.39810465597262e-06,4.36662663044196e-06,1.53170002414207e-06,-4.77922647905547e-07,7.51665553620999e-06,-4.61050605629791e-06,-2.30945887752951e-06,1.73006662890605e-06,2.4014083594532e-06,-4.81453757812899e-07,1.13880775106156e-06,2.0565724836401e-07,3.4084209533776e-06,-5.65095347382556e-07,3.13331976322059e-06,-2.32775926051436e-07,2.15726704075055e-06,1.64521810116824e-05,3.40228659699675e-06,-6.73265751200085e-07,1.75349842902942e-06,-6.55471606265041e-07,8.41917483369753e-07,-5.80206770145848e-07,3.94048947930225e-06,-2.54189685640463e-06,8.63943085362709e-06,-2.71397636105001e-06
7.6501497593556e-06,-4.14363504433786e-07,3.10179999313193e-06,-2.58367361824738e-07,3.71313566585699e-06,8.5348995617558e-08,3.38212374200969e-06,-6.449039687014e-07,2.08072544058695e-06,-1.25456685245859e-07,3.17475732980544e-06,-3.23160814876623e-06,1.27733702659314e-06,-2.52283139339481e-07,2.37975691732582e-06,-2.89755035277464e-07,-3.71255791096682e-06,-3.04926104688066e-06,2.58020272946244e-06,-1.14924570762631e-06,-5.62058648929553e-08,-5.48019560136402e-07,3.84864175805971e-06,-3.16983614675861e-06,1.0643836562591e-06,-2.26283874406313e-07,-1.84080420181473e-06,2.87618730398838e-06,1.35796417441853e-06,-8.7909020236271e-07,2.38913204624286e-06,-2.99204303536485e-06,8.10420074183157e-07,-6.21701782066696e-07,-2.1713298931995e-07,3.76145411786581e-07,1.01375471337342e-06,-8.63999670557167e-07,2.41236022890552e-06,5.25653883749931e-07,4.46979065091724e-07,7.73172982732477e-07,1.43934536066589e-07,1.77922989034816e-06,-2.40483273525199e-06,4.45536232925053e-06,1.51624073592131e-06,-5.06033863983477e-07,7.48060514952474e-06,-4.68824854805004e-06,-2.42591407489842e-06,1.73063890305766e-06,2.34538711148322e-06,-4.69399477160399e-07,1.13233225244733e-06,2.07268544500907e-07,3.32855496991452e-06,-5.60184428345362e-07,3.06465744678615e-06,-2.41057361580134e-07,2.10042340297994e-06,1.72985428725327e-05,3.33748377186616e-06,-6.9762891821876e-07,1.67547374080288e-06,-6.76969283024068e-07,7.70144846949298e-07,-5.96127789533705e-07,3.90749944423886e-06,-2.54093399515718e-06,8.4507737278522e-06,-2.67292896806847e-06
7.55500645540491e-06,-4.22823678898532e-07,3.16603957182999e-06,-2.36680376339119e-07,3.70672115078049e-06,1.03489226648374e-07,3.3753639226155e-06,-6.52879320628418e-07,2.07888578631461e-06,-1.16863034454358e-07,2.79179765191664e-06,-3.11200904768715e-06,1.23157156758728e-06,-2.66225822664772e-07,2.34273489672433e-06,-2.99854772741427e-07,-3.78343285634148e-06,-3.02973791245655e-06,2.56864295319951e-06,-1.15674688750112e-06,-9.21551782018174e-08,-5.7390111323522e-07,3.87244469592101e-06,-3.23272220830223e-06,1.10067615473268e-06,-3.18889419406235e-07,-1.74057623516654e-06,2.90298131717285e-06,1.33641851889001e-06,-8.88992211571288e-07,2.42622080181762e-06,-3.03722812002969e-06,8.38865452954091e-07,-6.31868165318369e-07,-1.26057847739691e-07,3.55454088849117e-07,1.05567113998518e-06,-8.62262578815697e-07,2.39794592483939e-06,5.5269491416302e-07,4.55663159514205e-07,7.85523319643808e-07,7.78158537697331e-08,1.7769633414064e-06,-2.40919801155266e-06,4.53618902534267e-06,1.49790574469936e-06,-5.33503183976008e-07,7.4407893545299e-06,-4.76355600002461e-06,-2.54131020513582e-06,1.72924605877732e-06,2.28853394500293e-06,-4.57003609589658e-07,1.12512699403063e-06,2.08227922794987e-07,3.2499097053585e-06,-5.56806755170553e-07,2.99427027593778e-06,-2.50032910777938e-07,2.05387886959536e-06,1.81319712757902e-05,3.26910485797745e-06,-7.20872291332465e-07,1.59583400958398e-06,-6.97662965505463e-07,6.97367395689588e-07,-6.11604399166865e-07,3.86814475542895e-06,-2.53915187701701e-06,8.25101650897662e-06,-2.63180949465243e-06
7.45566224507922e-06,-4.32550862445408e-07,3.2269290998099e-06,-2.15909362257179e-07,3.69719404356496e-06,1.19710949180209e-07,3.3664969259771e-06,-6.60719837524275e-07,2.07688007096549e-06,-1.08212115345237e-07,2.40874511849552e-06,-2.99052181231645e-06,1.18646889664448e-06,-2.7982901820833e-07,2.30584759881448e-06,-3.09601268896115e-07,-3.84732372332273e-06,-3.00687560450572e-06,2.55302486641467e-06,-1.16135056666334e-06,-1.2858648161337e-07,-5.99291109861239e-07,3.89233246581634e-06,-3.29323462721161e-06,1.13539458838809e-06,-4.11520346442351e-07,-1.63770125127685e-06,2.92817087890952e-06,1.31446066782063e-06,-8.98143358502298e-07,2.4593130002632e-06,-3.0786666475331e-06,8.64803831771806e-07,-6.41753079552255e-07,-3.56868578680953e-08,3.32748021880931e-07,1.09485442756827e-06,-8.60087846711929e-07,2.37946661512666e-06,5.78525139831951e-07,4.61821593322294e-07,7.97528722961858e-07,1.29478633513626e-08,1.77111230777149e-06,-2.41123522264122e-06,4.60876629226334e-06,1.47678631300309e-06,-5.60289243348297e-07,7.39732513714885e-06,-4.836200845375e-06,-2.65547636265928e-06,1.72598445276051e-06,2.23097956957627e-06,-4.44295382670426e-07,1.11714055556394e-06,2.08511455129455e-07,3.1725884779658e-06,-5.54966039007464e-07,2.92233468862206e-06,-2.59704109109529e-07,2.01730069519656e-06,1.89499074214046e-05,3.19736579753435e-06,-7.42933781934702e-07,1.51483280396119e-06,-7.17425504777317e-07,6.23863789846139e-07,-6.26565109158461e-07,3.82250188673944e-06,-2.53651685027801e-06,8.04045672958747e-06,-2.59069760673869e-06
7.35227179987745e-06,-4.43552711072816e-07,3.28426618426733e-06,-1.96168246393862e-07,3.68468586035929e-06,1.33927081560402e-07,3.35551653884554e-06,-6.68432031150582e-07,2.07462355180633e-06,-9.95578797025955e-08,2.02650914489627e-06,-2.86744122836284e-06,1.14210480970011e-06,-2.93089656956513e-07,2.26921095199551e-06,-3.18989805767176e-07,-3.90418211070759e-06,-2.98074857896012e-06,2.53339209838904e-06,-1.16312505693631e-06,-1.65337992015708e-07,-6.24127036832121e-07,3.90837846932377e-06,-3.35123586346982e-06,1.16833865409799e-06,-5.03638995712225e-07,-1.53230953639282e-06,2.95150627064325e-06,1.29207202082014e-06,-9.06502087928485e-07,2.48857072087085e-06,-3.11630342089874e-06,8.88225987340318e-07,-6.51331324699765e-07,5.3718682789311e-08,3.08199587457356e-07,1.13126560560328e-06,-8.57510595353966e-07,2.35707346905287e-06,6.0298848779782e-07,4.65425683992114e-07,8.09159842250154e-07,-5.04255108515209e-08,1.76167638485625e-06,-2.41097903791274e-06,4.67278373490132e-06,1.45298471910781e-06,-5.8635271484402e-07,7.35032696754507e-06,-4.90595268683628e-06,-2.76824689310732e-06,1.72096068759405e-06,2.17285462604603e-06,-4.31305749831615e-07,1.10832558976408e-06,2.08097843273466e-07,3.09668540899064e-06,-5.54657591081105e-07,2.84903391257638e-06,-2.70068714250123e-07,1.99021852526538e-06,1.97499189585781e-05,3.12249179302014e-06,-7.63754221880124e-07,1.43272721325219e-06,-7.36133033506701e-07,5.49914072654302e-07,-6.40940336432812e-07,3.77067533148134e-06,-2.53299470406256e-06,7.81941473183246e-06,-2.54967104256772e-06
7.24499620094934e-06,-4.55832289486906e-07,3.33786633665924e-06,-1.77566862011467e-07,3.66934514601643e-06,1.46060184878132e-07,3.3424223986828e-06,-6.76022733759815e-07,2.07202889749481e-06,-9.09551241944937e-08,1.64600016551822e-06,-2.74306220554814e-06,1.09855467041641e-06,-3.06005574632881e-07,2.23293519357694e-06,-3.28017048349933e-07,-3.95397669889301e-06,-2.95143944472903e-06,2.50980485815588e-06,-1.16215264185617e-06,-2.02245398788521e-07,-6.48349095894816e-07,3.92066899305819e-06,-3.40659840796449e-06,1.19929789098734e-06,-5.94693694637998e-07,-1.42453939993417e-06,2.97274748578395e-06,1.26923551982896e-06,-9.14028714216774e-07,2.51416204425946e-06,-3.15008880464741e-06,9.09133031918091e-07,-6.60577572430018e-07,1.41908230483475e-07,2.81991097763214e-07,1.16487751930979e-06,-8.54565501782153e-07,2.33093875638479e-06,6.25933299894931e-07,4.66461597393472e-07,8.2038529022274e-07,-1.12070753750171e-07,1.74867437736529e-06,-2.40846403814082e-06,4.72796284205203e-06,1.42661377898148e-06,-6.11656323464697e-07,7.29990632775269e-06,-4.97257915191548e-06,-2.87946217527449e-06,1.71429097769634e-06,2.11428890890683e-06,-4.18067174508408e-07,1.09863916588375e-06,2.06968504492802e-07,3.02228482868813e-06,-5.55868377875161e-07,2.77455699636118e-06,-2.81120704813057e-07,1.97202800638951e-06,2.05297067612966e-05,3.04471591260098e-06,-7.83277601770379e-07,1.34977658301152e-06,-7.53665726115063e-07,4.7579820315873e-07,-6.5466275624533e-07,3.7127968066209e-06,-2.52855100944199e-06,7.58823235358588e-06,-2.50880559178222e-06
7.13400169456549e-06,-4.69387949544236e-07,3.3875638281562e-06,-1.60210286892753e-07,3.65133546978901e-06,1.56042863774511e-07,3.3272200558895e-06,-6.83499050320482e-07,2.06900697073548e-06,-8.24593412547353e-08,1.268125833008e-06,-2.61767843312623e-06,1.05589331778739e-06,-3.18575510878686e-07,2.1971246963015e-06,-3.36681051950193e-07,-3.99669276237564e-06,-2.91903862497029e-06,2.48233961261131e-06,-1.15852907902663e-06,-2.39142704283882e-07,-6.71900317965777e-07,3.92930299514917e-06,-3.45920555024723e-06,1.22805269416515e-06,-6.84121720123781e-07,-1.3145371926793e-06,2.99166735953759e-06,1.24593626061278e-06,-9.20685660660045e-07,2.53625900025403e-06,-3.17997788325764e-06,9.27536528492782e-07,-6.69466501898335e-07,2.28643198311962e-07,2.54314365074339e-07,1.1956748265419e-06,-8.5128670364413e-07,2.3012551129845e-06,6.47213176390841e-07,4.64930472999851e-07,8.31171969746197e-07,-1.71765486269545e-07,1.73214369971291e-06,-2.4037247383532e-06,4.77405856847242e-06,1.39779630387489e-06,-6.36164856709158e-07,7.24617122575012e-06,-5.0358467854617e-06,-2.98896936416293e-06,1.70610042276438e-06,2.05541058248387e-06,-4.04613405153178e-07,1.08804305820711e-06,2.05107651663175e-07,2.94946069540079e-06,-5.58577122512269e-07,2.69909778579706e-06,-2.92850291957778e-07,1.96199453318924e-06,2.12871111179091e-05,2.96427765786171e-06,-8.01451284382776e-07,1.26624124911806e-06,-7.69908537162793e-07,4.01794598440766e-07,-6.67667634813827e-07,3.64902432661172e-06,-2.52315145841982e-06,7.34727163610486e-06,-2.46817511064648e-06
7.01945836690047e-06,-4.84213215679514e-07,3.43321235908107e-06,-1.44198207003566e-07,3.63083324342325e-06,1.63818108614831e-07,3.30992096285822e-06,-6.90868306616386e-07,2.06546758291181e-06,-7.41265574612536e-08,8.93787157702666e-07,-2.49158106557144e-06,1.01419490880992e-06,-3.30799111823444e-07,2.16187781805451e-06,-3.44981262892646e-07,-4.03233173845898e-06,-2.88364399932689e-06,2.45108861629069e-06,-1.15236295626422e-06,-2.7586310449619e-07,-6.94726649590088e-07,3.93439176626315e-06,-3.50895203542706e-06,1.25437541110964e-06,-7.71352361960732e-07,-1.2024573819042e-06,3.00805487731084e-06,1.22216205337182e-06,-9.26437706476033e-07,2.5550355594525e-06,-3.2059296998628e-06,9.43458542379059e-07,-6.7797293191143e-07,3.13698079815954e-07,2.25370167053412e-07,1.22365393407541e-06,-8.47707710175282e-07,2.26823467820807e-06,6.66687804308065e-07,4.60848427722386e-07,8.41485443469742e-07,-2.29299050564719e-07,1.71213955145817e-06,-2.39679564843423e-06,4.8108606288231e-06,1.36666450007098e-06,-6.59845173271889e-07,7.18922570831625e-06,-5.09552197372905e-06,-3.09662309929367e-06,1.69652220934376e-06,1.99634540322915e-06,-3.90979248960561e-07,1.07650397668278e-06,2.0250237061061e-07,2.87827604058992e-06,-5.62754454538697e-07,2.62285385453314e-06,-3.0524394236095e-07,1.95925739029154e-06,2.20201172196146e-05,2.88142150840311e-06,-8.18226197793177e-07,1.18238127398946e-06,-7.84751906782989e-07,3.2817869540885e-07,-6.79893141931684e-07,3.57954115356306e-06,-2.51676219543829e-06,7.09691357201156e-06,-2.42785156811358e-06
6.90153875825892e-06,-5.00296675901755e-07,3.47468554341472e-06,-1.29624308976355e-07,3.608025391508e-06,1.69339578381471e-07,3.290542392772e-06,-6.98137992947017e-07,2.06132021621723e-06,-6.60131584713962e-08,5.23874605963848e-07,-2.36505744641066e-06,9.73532700218105e-07,-3.42676936601171e-07,2.12728677386975e-06,-3.52918512820892e-07,-4.06091085502837e-06,-2.84536052778298e-06,2.41615929977326e-06,-1.14377490903064e-06,-3.12239906416225e-07,-7.16777011874378e-07,3.93605845700886e-06,-3.55574459491781e-06,1.27803151197215e-06,-8.55810064546023e-07,-1.08846257105263e-06,3.02171844790412e-06,1.19790392167285e-06,-9.31252232731277e-07,2.57066574363651e-06,-3.22790665539207e-06,9.56931628344041e-07,-6.86071949735966e-07,3.96861492178003e-07,1.95367606716355e-07,1.24882287384936e-06,-8.4386131846672e-07,2.2321081134635e-06,6.8422376450464e-07,4.54246439002319e-07,8.51290337935754e-07,-2.84472939793769e-07,1.68873386677162e-06,-2.38771140347035e-06,4.83819453623734e-06,1.33335931584224e-06,-6.82666211113596e-07,7.1291693831919e-06,-5.15137189146306e-06,-3.20228618132119e-06,1.68569676030409e-06,1.93721596090368e-06,-3.77200352958373e-07,1.06399373683275e-06,1.99142697037968e-07,2.80878244966033e-06,-5.68363108568312e-07,2.54602539737999e-06,-3.18284412192335e-07,1.96283461855433e-06,2.27268597464488e-05,2.79639546054617e-06,-8.33557017487385e-07,1.0984551872228e-06,-7.98092420000367e-07,2.55221542136476e-07,-6.9128064247355e-07,3.50455463303935e-06,-2.50935013962169e-06,6.83755690909212e-06,-2.38790511672956e-06
6.78041643595471e-06,-5.17621876889401e-07,3.51187721057955e-06,-1.16575704500667e-07,3.58310690302422e-06,1.72571823469039e-07,3.2691072911899e-06,-7.05315702728391e-07,2.05647470966829e-06,-5.81757003260739e-08,1.59264175891718e-07,-2.23838987820909e-06,9.33978773864868e-07,-3.54210467083663e-07,2.09343752863151e-06,-3.60495006813912e-07,-4.08246282025572e-06,-2.80429985730199e-06,2.37767353347531e-06,-1.13289672050763e-06,-3.48107477372099e-07,-7.38003332654184e-07,3.93443747057436e-06,-3.59950234537607e-06,1.29878082518018e-06,-9.36917622769117e-07,-9.72723395516302e-07,3.03248897044037e-06,1.1731565292847e-06,-9.35099458735614e-07,2.58332187635471e-06,-3.24587409011603e-06,9.67998753101423e-07,-6.93739037741373e-07,4.77937146113595e-07,1.64523354209971e-07,1.27120111820345e-06,-8.39779532792658e-07,2.19312351098503e-06,6.99695311482874e-07,4.45170109574527e-07,8.60550775652697e-07,-3.37101065016185e-07,1.66201404860693e-06,-2.37650701207279e-06,4.85592245172501e-06,1.29802973958656e-06,-7.04598994508057e-07,7.06609696002203e-06,-5.20316546262256e-06,-3.30583021343699e-06,1.67377084446753e-06,1.87814095011381e-06,-3.63312998632335e-07,1.05048936701373e-06,1.95021694187282e-07,2.74101958580872e-06,-5.75358169144651e-07,2.46881409562741e-06,-3.31950793213902e-07,1.97162887422371e-06,2.34056263732318e-05,2.70944958107607e-06,-8.47402348875521e-07,1.01471873879006e-06,-8.09833412714555e-07,1.83188428608121e-07,-7.01774965628816e-07,3.42429492555654e-06,-2.50088329748272e-06,6.56961702328902e-06,-2.34840418168397e-06
6.65626454608892e-06,-5.36167222371342e-07,3.54470152860365e-06,-1.05132389780167e-07,3.5562782951211e-06,1.73490447711076e-07,3.24564406442823e-06,-7.12409065167482e-07,2.05084190725424e-06,-5.06707079770978e-08,-1.99186529230531e-07,-2.11185444683457e-06,8.95603711823303e-07,-3.65402119622883e-07,2.06040970878676e-06,-3.67714305475922e-07,-4.09703557609917e-06,-2.76057991293442e-06,2.33576678209608e-06,-1.11987032306444e-06,-3.83302219357525e-07,-7.58360554117691e-07,3.92967373220463e-06,-3.64015706462506e-06,1.31637883110342e-06,-1.01409940936935e-06,-8.55418278788633e-07,3.0402225926512e-06,1.14791852683252e-06,-9.37952662276958e-07,2.5931729369754e-06,-3.25979999550562e-06,9.76713153504051e-07,-7.00950199293013e-07,5.56744749453659e-07,1.33060758647758e-07,1.29081933234493e-06,-8.35493484238812e-07,2.15154520062622e-06,7.12985120737004e-07,4.33679322302692e-07,8.69230826239883e-07,-3.8700985971763e-07,1.63208151270359e-06,-2.36321826657926e-06,4.86394392326227e-06,1.26083205345211e-06,-7.25616639708026e-07,7.00009781972989e-06,-5.25067432628868e-06,-3.40713619673272e-06,1.66089664978276e-06,1.81923448112268e-06,-3.49353911662505e-07,1.03597315300226e-06,1.90135530472735e-07,2.67501476274751e-06,-5.83687357051347e-07,2.39142196392079e-06,-3.46218573123467e-07,1.98443446235827e-06,2.40548600191442e-05,2.62083459815146e-06,-8.5972491925321e-07,9.31423680723437e-07,-8.1988552520577e-07,1.12337566715552e-07,-7.11324650553105e-07,3.33901364135721e-06,-2.4913310622172e-06,6.29352487255218e-06,-2.30941555880646e-06
6.52925436691757e-06,-5.55905875048182e-07,3.57309295506978e-06,-9.53667434282068e-08,3.52774302400614e-06,1.72082209463665e-07,3.22018631019857e-06,-7.19425671304302e-07,2.04433426828548e-06,-4.35544624718305e-08,-5.50642206282853e-07,-1.9857199080823e-06,8.58476229045481e-07,-3.76255257833166e-07,2.0282765318577e-06,-3.74581301146114e-07,-4.10469211585889e-06,-2.71432447552258e-06,2.29058715876536e-06,-1.10484671207305e-06,-4.17663559119632e-07,-7.77806618920912e-07,3.92192185426585e-06,-3.67765335889604e-06,1.33057800908335e-06,-1.08678461482578e-06,-7.3673301599333e-07,3.04480304463539e-06,1.12219281396998e-06,-9.39788380453575e-07,2.60038296573214e-06,-3.26965477030896e-06,9.83138131098708e-07,-7.07682084819035e-07,6.33120841829515e-07,1.01208830234479e-07,1.30771906241933e-06,-8.31033348564553e-07,2.10765246111654e-06,7.23984999064151e-07,4.19847800834453e-07,8.77294962874915e-07,-4.34038233017009e-07,1.59905008138385e-06,-2.34788234188633e-06,4.86219658347019e-06,1.22192904824782e-06,-7.45694359369992e-07,6.93125562227593e-06,-5.29367380063422e-06,-3.5060950647897e-06,1.6472308177042e-06,1.76060543557636e-06,-3.35360084292921e-07,1.02043262184994e-06,1.84483554157038e-07,2.61078257109695e-06,-5.93291352377675e-07,2.31405018682906e-06,-3.61059711949568e-07,1.99994568608747e-06,2.46731596045644e-05,2.53080054763367e-06,-8.70491782504515e-07,8.48816595496776e-07,-8.28167207015071e-07,4.29188290123802e-08,-7.19882166873418e-07,3.24898238256399e-06,-2.48066449076504e-06,6.00972603988283e-06,-2.27100450838242e-06
6.39955388775665e-06,-5.768056632965e-07,3.59700602379664e-06,-8.73430663238507e-08,3.49770487972351e-06,1.68345062080432e-07,3.1927724967292e-06,-7.26372992921273e-07,2.0368664400928e-06,-3.68827779259513e-08,-8.94293711148362e-07,-1.86024664433841e-06,8.22662771648393e-07,-3.86774205204714e-07,1.9971047528893e-06,-3.81102188445717e-07,-4.10551036483414e-06,-2.66566274840061e-06,2.24229438654084e-06,-1.08798478380055e-06,-4.51034944073915e-07,-7.9630243688998e-07,3.91134521090001e-06,-3.71194872685042e-06,1.34112923435395e-06,-1.15441048358392e-06,-6.16860084583914e-07,3.04614336046942e-06,1.09598671630344e-06,-9.4058659155506e-07,2.60510949769758e-06,-3.27541095524804e-06,9.87346783828848e-07,-7.13912118161853e-07,7.0691954483688e-07,6.92011067129836e-08,1.32195235840673e-06,-8.26428261883017e-07,2.06173814119483e-06,7.32596552828308e-07,4.0376259533868e-07,8.84708507246863e-07,-4.78037396034699e-07,1.56304427987042e-06,-2.33053858098813e-06,4.85065684073498e-06,1.18148920668981e-06,-7.64809465972867e-07,6.85964796223438e-06,-5.33194383857187e-06,-3.60260814195162e-06,1.63293343297187e-06,1.70235686808582e-06,-3.21368604775052e-07,1.00386046807335e-06,1.78068360330232e-07,2.54832456085936e-06,-6.04104150748776e-07,2.23689794995744e-06,-3.76442734927608e-07,2.01676666389572e-06,2.52592790284386e-05,2.43959548461908e-06,-8.79674532619787e-07,7.67137783785318e-07,-8.34605173334008e-07,-2.48274452846695e-08,-7.27404108153147e-07,3.154491194922e-06,-2.46885654907536e-06,5.71867986667058e-06,-2.23323482850883e-06
6.26732643550912e-06,-5.98828994544272e-07,3.61641497519204e-06,-8.11171668919371e-08,3.46636539896893e-06,1.62288134274082e-07,3.16344559592697e-06,-7.3325829401249e-07,2.02835579121034e-06,-3.07107685109259e-08,-1.22936184696743e-06,-1.73568569826693e-06,7.88227087206275e-07,-3.96964255261829e-07,1.96695462659413e-06,-3.87284429366484e-07,-4.09958312263958e-06,-2.61472891552057e-06,2.191058679852e-06,-1.06945011804426e-06,-4.83264834846239e-07,-8.13811832723095e-07,3.89811492670456e-06,-3.74301351366905e-06,1.34778322051401e-06,-1.21642553076098e-06,-4.95997576110036e-07,3.04418680470634e-06,1.06931207766412e-06,-9.40330880535039e-07,2.60750204883582e-06,-3.27704292363632e-06,9.89421675364512e-07,-7.19618622465108e-07,7.78013201513351e-07,3.72744262489981e-08,1.33358133204497e-06,-8.21706235497482e-07,2.01410719529099e-06,7.38731807863504e-07,3.85523508662916e-07,8.91438048679889e-07,-5.18870601766008e-07,1.5241975986225e-06,-2.31122942646038e-06,4.82934054766895e-06,1.13968586225579e-06,-7.8294137455361e-07,6.78534608069361e-06,-5.36526996976938e-06,-3.69658751067335e-06,1.61816696082527e-06,1.64458544893436e-06,-3.0741648544639e-07,9.86254425160768e-07,1.70895844709381e-07,2.48762897903933e-06,-6.16053449892985e-07,2.16016126745627e-06,-3.92332841194412e-07,2.03342275617528e-06,2.58121241342866e-05,2.34746426068047e-06,-8.87249515093675e-07,6.86620215917723e-07,-8.39134806807453e-07,-9.06715700022745e-08,-7.33851356164092e-07,3.05584693123264e-06,-2.45588231976428e-06,5.42085866706451e-06,-2.19616889145587e-06
6.13272936685827e-06,-6.21932777494986e-07,3.63131323717131e-06,-7.67359950192453e-08,3.43392132418433e-06,1.53931650630813e-07,3.1322526745637e-06,-7.4008853471465e-07,2.01872290051871e-06,-2.50926049343873e-08,-1.55510106100212e-06,-1.61227788983241e-06,7.55229771399617e-07,-4.06831675885607e-07,1.93787988307433e-06,-3.93136712861385e-07,-4.08701806536382e-06,-2.56166169320309e-06,2.13705956321535e-06,-1.04941373199561e-06,-5.14207686070326e-07,-8.30301474480971e-07,3.88240878087856e-06,-3.77083074689733e-06,1.35029200171752e-06,-1.27229272276204e-06,-3.74347742915191e-07,3.0389069446397e-06,1.04218526697455e-06,-9.39008590248131e-07,2.60770070422871e-06,-3.27452653334075e-06,9.89454441979303e-07,-7.2478094404872e-07,8.46292874358399e-07,5.66763154161638e-09,1.34267765045309e-06,-8.16894072203303e-07,1.9650751379242e-06,7.42313773151711e-07,3.65242468615719e-07,8.97451830251031e-07,-5.56412851778359e-07,1.48265079076823e-06,-2.29000142062104e-06,4.79830358352251e-06,1.09669634071989e-06,-8.00071605840656e-07,6.70841464162241e-06,-5.39344422605612e-06,-3.78795627777731e-06,1.60309512683525e-06,1.5873809402619e-06,-2.93540479917064e-07,9.67617084550444e-07,1.62975239656481e-07,2.42867056019274e-06,-6.29061064634031e-07,2.08403180761922e-06,-4.08692027917156e-07,2.04837362976028e-06,2.6330747615314e-05,2.25464736270787e-06,-8.93198021242112e-07,6.07488546975356e-07,-8.41700495179026e-07,-1.54395551424243e-07,-7.39189213731119e-07,2.95337152988911e-06,-2.44171917071108e-06,5.11674700585275e-06,-2.15986762945626e-06
5.99591284110302e-06,-6.46068355399935e-07,3.64171276296493e-06,-7.42373275480734e-08,3.40056213194285e-06,1.43306792220466e-07,3.0992444464642e-06,-7.46870267903478e-07,2.00789199653382e-06,-2.00812599567855e-08,-1.87080303179085e-06,-1.49025302257503e-06,7.2372779465075e-07,-4.16383703970887e-07,1.90992771458656e-06,-3.98668908550451e-07,-4.06793780449394e-06,-2.50660387731794e-06,2.08048464323714e-06,-1.02805082770478e-06,-5.43724907223274e-07,-8.45740783298507e-07,3.8644100350464e-06,-3.79539585655626e-06,1.34841044684463e-06,-1.32149260356181e-06,-2.5211526643564e-07,3.03030693527436e-06,1.01462709660379e-06,-9.366109587818e-07,2.60583485243679e-06,-3.26783874831055e-06,9.87545336762977e-07,-7.29379572109173e-07,9.11668673387494e-07,-2.53797699743432e-08,1.34932196612822e-06,-8.1201728652106e-07,1.91496642115247e-06,7.4327693909682e-07,3.43042843314083e-07,9.02720101438049e-07,-5.90550622828495e-07,1.43855026633409e-06,-2.26690618456931e-06,4.75764226974286e-06,1.05270109168053e-06,-8.16183791633256e-07,6.62891158115483e-06,-5.41626604968066e-06,-3.87664873949067e-06,1.58788174656303e-06,1.53082570128094e-06,-2.79776883481406e-07,9.47955663770955e-07,1.54319129775532e-07,2.37141037064013e-06,-6.43043370055506e-07,2.00869572162864e-06,-4.25479230822845e-07,2.06002781000549e-06,2.68143419977454e-05,2.16137981189035e-06,-8.97506451853664e-07,5.29958197349269e-07,-8.42255896592731e-07,-2.15794041448556e-07,-7.43387504018083e-07,2.84740021553129e-06,-2.42634688600579e-06,4.80684102130947e-06,-2.12439046039422e-06
5.85701868859121e-06,-6.71181452415738e-07,3.64764323309584e-06,-7.36495081425129e-08,3.36646765190843e-06,1.30455497132453e-07,3.06447478929053e-06,-7.5360952903521e-07,1.99579134180367e-06,-1.57282433439136e-08,-2.17580012808182e-06,-1.36982918487498e-06,6.93774013166515e-07,-4.25628526688994e-07,1.88313877163186e-06,-4.03892014014453e-07,-4.04247999690982e-06,-2.44970188732415e-06,2.02152834416404e-06,-1.00553954573205e-06,-5.71685795252396e-07,-8.60101825247488e-07,3.8443062029822e-06,-3.81671629606344e-06,1.34189779438959e-06,-1.36352634441481e-06,-1.29505383912812e-07,3.01841811604196e-06,9.86662648599434e-07,-9.33133241847234e-07,2.60202208106574e-06,-3.25695723124539e-06,9.83802711641256e-07,-7.33396251773461e-07,9.74069893680088e-07,-5.56289675627816e-08,1.35360328448711e-06,-8.07100031644236e-07,1.8641127406938e-06,7.41567700725868e-07,3.19058693795493e-07,9.07215438744517e-07,-6.21181646270238e-07,1.39204662042303e-06,-2.24200130856683e-06,4.70749356006247e-06,1.00788281796921e-06,-8.31263683811258e-07,6.54688803858526e-06,-5.4335431842731e-06,-3.96261045724813e-06,1.57268952750623e-06,1.47499422539452e-06,-2.66161318804032e-07,9.27281726156333e-07,1.44943446061632e-07,2.315795712225e-06,-6.57911773435524e-07,1.93433248549235e-06,-4.4265048313628e-07,2.06675847681465e-06,2.72622308537768e-05,2.06789012763668e-06,-9.0016644179568e-07,4.54234504910932e-07,-8.40764128463909e-07,-2.74675197816984e-07,-7.46420634421449e-07,2.73827963484745e-06,-2.40974776309492e-06,4.49164778027479e-06,-2.08979514651758e-06
5.71617939165975e-06,-6.9721213480166e-07,3.64915113084254e-06,-7.49912441848178e-08,3.33180579864489e-06,1.1543020094218e-07,3.02800023139875e-06,-7.60311720125928e-07,1.98235355926195e-06,-1.20833275720058e-08,-2.46946871901742e-06,-1.25121215164845e-06,6.65416670247026e-07,-4.34575246117452e-07,1.85754716828754e-06,-4.08818095366439e-07,-4.01079749691728e-06,-2.39110530832526e-06,1.96039061352628e-06,-9.8205973050919e-07,-5.97968431234814e-07,-8.73359185769965e-07,3.82228778530837e-06,-3.83481108795852e-06,1.33051919262132e-06,-1.39791868987525e-06,-6.72198234083186e-09,3.00329801107303e-06,9.58321007662175e-07,-9.28574819221119e-07,2.59636722704563e-06,-3.24185991428314e-06,9.78342438630937e-07,-7.36814088072883e-07,1.03344495423879e-06,-8.48432153949503e-08,1.35561827164921e-06,-8.02165036814158e-07,1.81285127811016e-06,7.37144697425666e-07,2.93433959325471e-07,9.10913034137437e-07,-6.4821473897901e-07,1.34329329799908e-06,-2.2153511252033e-06,4.64803498589087e-06,9.62425610940018e-07,-8.45299166908391e-07,6.46238837786697e-06,-5.44509254649425e-06,-4.04579826166183e-06,1.55767887149312e-06,1.41995271741857e-06,-2.5272851605718e-07,9.05610855859781e-07,1.34867438281674e-07,2.2617600946088e-06,-6.73573213843069e-07,1.86111376886816e-06,-4.60159094648757e-07,2.0669203290397e-06,2.76738582298488e-05,1.97439936460911e-06,-9.01174941345829e-07,3.80511956847337e-07,-8.37197878778903e-07,-3.30861444254797e-07,-7.48267623776939e-07,2.62636594584453e-06,-2.39190668258491e-06,4.17168465982833e-06,-2.05613758058381e-06
5.57351719626968e-06,-7.24094788454792e-07,3.64629870227205e-06,-7.82714629561011e-08,3.29673043943024e-06,9.82935174419814e-08,2.98987941606407e-06,-7.66981488927117e-07,1.9675158990959e-06,-9.19426594835196e-09,-2.75123231342335e-06,-1.13459489127308e-06,6.38698894912935e-07,-4.43233824934477e-07,1.83318049791427e-06,-4.13460221192365e-07,-3.97305853852146e-06,-2.33096643204737e-06,1.89727560574819e-06,-9.57791711848311e-07,-6.22460534254851e-07,-8.8548982646329e-07,3.79854698875008e-06,-3.84971031617858e-06,1.31404722849279e-06,-1.42422077206199e-06,1.16034246085289e-07,2.98502786170216e-06,9.29634902962359e-07,-9.22939284570505e-07,2.58896158080361e-06,-3.22252457319359e-06,9.71287272057989e-07,-7.39617638752081e-07,1.08976114394422e-06,-1.1278920361626e-07,1.35547050639822e-06,-7.97233559022457e-07,1.76152288706261e-06,7.29979064399683e-07,2.66321569782321e-07,9.13790950912201e-07,-6.71569656601989e-07,1.2924453719354e-06,-2.18702736122283e-06,4.57948435983726e-06,9.16514098584766e-07,-8.58280273196996e-07,6.37545030806114e-06,-5.45074107422817e-06,-4.12618019587257e-06,1.54300669565816e-06,1.36575871840228e-06,-2.39512097849905e-07,8.82962292328591e-07,1.241136260114e-07,2.20922328436445e-06,-6.89930685231323e-07,1.78920234503858e-06,-4.77955851433295e-07,2.05886742385581e-06,2.80487762001218e-05,1.88112022958179e-06,-9.0053425072374e-07,3.08973507345403e-07,-8.31539438806012e-07,-3.84190123930802e-07,-7.48912092332934e-07,2.51202287894659e-06,-2.37281115825592e-06,3.84747875321132e-06,-2.02347149617088e-06
5.42914337155926e-06,-7.51758114282892e-07,3.63916281254235e-06,-8.34892286559877e-08,3.26137942016126e-06,7.9117860235998e-08,2.95017255104578e-06,-7.73622604445842e-07,1.95122044580447e-06,-7.10650477097996e-09,-3.0205645059164e-06,-1.02015718165705e-06,6.13658205357615e-07,-4.5161501203818e-07,1.81005986039325e-06,-4.17832390241456e-07,-3.92944693464393e-06,-2.26943979735003e-06,1.83239035387862e-06,-9.32915108448239e-07,-6.45060266482811e-07,-8.96472924632664e-07,3.77327644104057e-06,-3.86145457859744e-06,1.29226343330746e-06,-1.44201277173636e-06,2.38567485490197e-07,2.96370987578802e-06,9.00640261857881e-07,-9.16234517373213e-07,2.57988225749397e-06,-3.198928438183e-06,9.62766152897257e-07,-7.41792994414313e-07,1.14300418917311e-06,-1.39238435764413e-07,1.35326967952042e-06,-7.92325350948482e-07,1.71047023034256e-06,7.20054595780073e-07,2.37882474410496e-07,9.15830349864369e-07,-6.91176938620501e-07,1.23965840992055e-06,-2.15710966620736e-06,4.50209923598119e-06,8.70332611000088e-07,-8.70199199088463e-07,6.28610511011583e-06,-5.45032654642519e-06,-4.20373539788616e-06,1.52882527400301e-06,1.31246078061737e-06,-2.2654437474714e-07,8.59358527809541e-07,1.12707730051795e-07,2.15809143634339e-06,-7.06883777370402e-07,1.71875105433422e-06,-4.95989235847033e-07,2.04097179543006e-06,2.83866307022546e-05,1.78825628253531e-06,-8.98252004472614e-07,2.39789983738802e-07,-8.23780655004074e-07,-4.34514041390612e-07,-7.48342214774403e-07,2.39561978209504e-06,-2.35245137283334e-06,3.51956629612724e-06,-1.99184810363312e-06
5.28315763143217e-06,-7.80125143250857e-07,3.62783370986499e-06,-9.06337211494065e-08,3.22587276845288e-06,5.79850058505473e-08,2.90894085081989e-06,-7.80237830088038e-07,1.93341426592973e-06,-5.86289128648622e-09,-3.27699170817586e-06,-9.08065338487999e-07,5.90326024426892e-07,-4.59730247862501e-07,1.78819990116636e-06,-4.21949453295753e-07,-3.88016227950397e-06,-2.20668173062302e-06,1.76594343832364e-06,-9.07607659319609e-07,-6.65676983706656e-07,-9.0628969807886e-07,3.74666790526537e-06,-3.87009440595317e-06,1.26495976050061e-06,-1.45090641604318e-06,3.60688208990116e-07,2.93946439222453e-06,8.7137567766547e-07,-9.0847273491727e-07,2.56919173717948e-06,-3.17104785350369e-06,9.52913455697932e-07,-7.43327845145352e-07,1.19317765642039e-06,-1.63968614352297e-07,1.34913074167949e-06,-7.87458643985295e-07,1.66003587272162e-06,7.07367822546897e-07,2.08284572338932e-07,9.17015692507767e-07,-7.06977739034801e-07,1.18508742539938e-06,-2.12568601705937e-06,4.41617611553646e-06,8.24064364527384e-07,-8.81050321283211e-07,6.1943779748799e-06,-5.44369837005066e-06,-4.27845391564063e-06,1.51528109511894e-06,1.26009819179762e-06,-2.13856152714293e-07,8.34824871558063e-07,1.00678586600784e-07,2.10825731061192e-06,-7.24329229846678e-07,1.64990183069814e-06,-5.14205666387539e-07,2.01164243029916e-06,2.8687146211614e-05,1.6960012265129e-06,-8.94341105149888e-07,1.73119580479437e-07,-8.13922797510872e-07,-4.81701890455779e-07,-7.46550637415502e-07,2.27752965407557e-06,-2.33082020112496e-06,3.18849210504328e-06,-1.96131565863679e-06
5.13564772799227e-06,-8.091132733922e-07,3.61241370823788e-06,-9.96842769846434e-08,3.19031108935889e-06,3.49855989855927e-08,2.86624597740982e-06,-7.8682879593609e-07,1.91404949757983e-06,-5.50337955137003e-09,-3.52009564384893e-06,-7.98472057753936e-07,5.68727213773303e-07,-4.67591549904895e-07,1.76760886129618e-06,-4.25827029560351e-07,-3.82542014060995e-06,-2.14284988635278e-06,1.69814365870902e-06,-8.82044088722378e-07,-6.84231925509263e-07,-9.14923219697636e-07,3.71891099468547e-06,-3.8756896485908e-06,1.23194003466691e-06,-1.45054731004335e-06,4.82214213936774e-07,2.91242714031046e-06,8.41881794383867e-07,-8.99670523355248e-07,2.55693754816888e-06,-3.13885797454745e-06,9.41868178465989e-07,-7.44211533102392e-07,1.24030219625563e-06,-1.86765029003508e-07,1.34317300024597e-06,-7.82650143801838e-07,1.6105603351195e-06,6.91928008084293e-07,1.77701533089641e-07,9.17334928809463e-07,-7.18923662845296e-07,1.12888592545454e-06,-2.09285300943337e-06,4.32204938713095e-06,7.77890663252086e-07,-8.90830210257619e-07,6.10028845294822e-06,-5.4307183300277e-06,-4.35033645173887e-06,1.5025137385398e-06,1.2087007490135e-06,-2.01476554451936e-07,8.09388986448582e-07,8.80580454055037e-08,2.0596005774723e-06,-7.42161495631666e-07,1.58278479898529e-06,-5.32549756764167e-07,1.96934412995859e-06,2.89501099117963e-05,1.60453829087824e-06,-8.88819609247808e-07,1.09107438031467e-07,-8.01976343749965e-07,-5.25638567887831e-07,-7.43534361534361e-07,2.15812716576952e-06,-2.30791321902035e-06,2.85480901433222e-06,-1.93191897410152e-06
4.9866892223333e-06,-8.38634331422897e-07,3.59301580062818e-06,-1.10610493086068e-07,3.15477416648145e-06,1.02186009243449e-08,2.82214948431604e-06,-7.9339587205512e-07,1.89308338315785e-06,-6.06473647034068e-09,-3.74951558462616e-06,-6.91516373176013e-07,5.48879633031623e-07,-4.75211380238285e-07,1.74828863684967e-06,-4.29481417872349e-07,-3.76545222766494e-06,-2.07810278821786e-06,1.62919871481623e-06,-8.56395011057865e-07,-7.00658839436089e-07,-9.22358227149253e-07,3.69019188943065e-06,-3.87830882849019e-06,1.19302136821996e-06,-1.44061709728911e-06,6.02971177353751e-07,2.88274675005567e-06,8.12200615508494e-07,-8.89848849249148e-07,2.5431520716616e-06,-3.10233251111451e-06,9.29773076316014e-07,-7.44435090362512e-07,1.28441462849719e-06,-2.07421934374254e-07,1.33551916731551e-06,-7.77915036951128e-07,1.56238011861484e-06,6.73757061334473e-07,1.46311504381105e-07,9.16779674158893e-07,-7.2697663789351e-07,1.07120507145054e-06,-2.05871605742278e-06,4.22008999516257e-06,7.31990115724721e-07,-8.99537638798834e-07,6.0038510106188e-06,-5.41126129789541e-06,-4.41939404090106e-06,1.49065478189478e-06,1.15828858583623e-06,-1.89432860301921e-07,7.83080406368994e-07,7.48808511204919e-08,2.01198821254665e-06,-7.60273310378935e-07,1.51751744868843e-06,-5.50964592057011e-07,1.91261607529109e-06,2.91753556563668e-05,1.51403970910538e-06,-8.81710568627462e-07,4.78853028122873e-08,-7.87960678269087e-07,-5.66225374665675e-07,-7.39294595678796e-07,2.03778666889285e-06,-2.28372869608355e-06,2.5190772967254e-06,-1.90369888880709e-06
4.83634543491128e-06,-8.68594661872196e-07,3.56976221581925e-06,-1.23372393277192e-07,3.11931978098819e-06,-1.62093166632169e-08,2.77671226692418e-06,-7.99938045248882e-07,1.87047824672132e-06,-7.58025031406634e-09,-3.96495030349593e-06,-5.87323726908542e-07,5.30793729967184e-07,-4.82602498632525e-07,1.73023484496317e-06,-4.32929503119709e-07,-3.70050652680799e-06,-2.01259937110276e-06,1.55931390317737e-06,-8.30825880747454e-07,-7.14904534132948e-07,-9.28580932031272e-07,3.66069205740314e-06,-3.87802844989331e-06,1.14803553631227e-06,-1.42083543788931e-06,7.22792681994228e-07,2.85058261657729e-06,7.82374749857853e-07,-8.79033054845088e-07,2.52785249301909e-06,-3.06144358468164e-06,9.1677374041946e-07,-7.43991261057799e-07,1.32556686162212e-06,-2.25743897450759e-07,1.32629436430341e-06,-7.73267008804567e-07,1.51582571032759e-06,6.52889365299202e-07,1.14295715038671e-07,9.15345376811855e-07,-7.31108849036654e-07,1.01219296614384e-06,-2.0233895162744e-06,4.11070382787643e-06,6.86537865595508e-07,-9.07173585189568e-07,5.90507567854295e-06,-5.38521589402914e-06,-4.48564766726332e-06,1.47982675503468e-06,1.10887205603043e-06,-1.77750373931584e-07,7.559300438786e-07,6.11845064266648e-08,1.96527498275856e-06,-7.78556261983245e-07,1.45420388769394e-06,-5.69392017173931e-07,1.8400902789468e-06,2.93627475536508e-05,1.42466628687576e-06,-8.730418291732e-07,-1.04287352804487e-08,-7.71903713413811e-07,-6.03380108586517e-07,-7.33836580533335e-07,1.91688019451014e-06,-2.25826757111708e-06,2.18186405204219e-06,-1.87669170741705e-06
4.68466757570312e-06,-8.9889524699848e-07,3.54278293412245e-06,-1.37920657388713e-07,3.08398276307793e-06,-4.41844285240262e-08,2.72999402186595e-06,-8.06452802204104e-07,1.84620141753529e-06,-1.00794444087405e-08,-4.16615971983661e-06,-4.86006148993548e-07,5.14472166141295e-07,-4.89777806281281e-07,1.71343689283284e-06,-4.36188658472327e-07,-3.63084738962069e-06,-1.94649852434955e-06,1.48869083380331e-06,-8.05495985669212e-07,-7.26929357272063e-07,-9.33578832008064e-07,3.63058698269678e-06,-3.8749322603654e-06,1.09683029621043e-06,-1.39096178769425e-06,8.41519762010201e-07,2.81610312317214e-06,7.5244661216667e-07,-8.67252840602274e-07,2.51104096083793e-06,-3.01616179945164e-06,9.03017625179243e-07,-7.42874507525077e-07,1.36382463084091e-06,-2.41547083721213e-07,1.31562509146955e-06,-7.68718273884906e-07,1.47121958517128e-06,6.29371519264452e-07,8.18369889501439e-08,9.13031475109933e-07,-7.31302760744715e-07,9.51994084984534e-07,-1.9869967295908e-06,3.99432981846866e-06,6.41704835840042e-07,-9.13741232753204e-07,5.80396877325526e-06,-5.35248509789934e-06,-4.5491278314034e-06,1.47014215773606e-06,1.06045167152474e-06,-1.6645230965962e-07,7.27969696672346e-07,4.70091169340285e-08,1.91930402323654e-06,-7.96901354249794e-07,1.39293417813555e-06,-5.87772930489125e-07,1.75051021777284e-06,2.95121629102684e-05,1.33656705400911e-06,-8.62845789175958e-07,-6.57304303311295e-08,-7.53841438863114e-07,-6.3703705363501e-07,-7.2716939057117e-07,1.79577544883816e-06,-2.2315334141968e-06,1.84374254973414e-06,-1.8509286262073e-06
4.53169505288821e-06,-9.29431861170468e-07,3.51221417889619e-06,-1.54196912350208e-07,3.04877429278135e-06,-7.35866577757306e-08,2.68205271701013e-06,-8.12936022304898e-07,1.82022510179461e-06,-1.3587799561344e-08,-4.35296621010354e-06,-3.87662538251265e-07,4.99909480252777e-07,-4.96750185091767e-07,1.69787804491355e-06,-4.39276644290932e-07,-3.55675556702905e-06,-1.87995863653297e-06,1.41752616999884e-06,-7.80557477524171e-07,-7.36707594719373e-07,-9.37340529355694e-07,3.60004490461439e-06,-3.86911045610095e-06,1.03927063454944e-06,-1.35079696090632e-06,9.59000098694511e-07,2.77948412960588e-06,7.22457599914266e-07,-8.54542238390067e-07,2.49270499253016e-06,-2.96645658727146e-06,8.88653029190701e-07,-7.41081002206436e-07,1.39926603709489e-06,-2.54660446092075e-07,1.30363817340013e-06,-7.64279619508052e-07,1.42887421797274e-06,6.03261996081424e-07,4.91181906673837e-08,9.09841542839261e-07,-7.27551253579899e-07,8.90748871479648e-07,-1.94967000247489e-06,3.87143777231301e-06,5.97656986308376e-07,-9.19245967856917e-07,5.70053366994544e-06,-5.31298680252132e-06,-4.60987407832945e-06,1.4617025580522e-06,1.01301808693056e-06,-1.55559687743156e-07,6.99231560093727e-07,3.23972200651432e-08,1.87390750569175e-06,-8.15199560020249e-07,1.33378375644064e-06,-6.06047575257073e-07,1.64274971650817e-06,2.96234745962927e-05,1.24987899524929e-06,-8.5115912330315e-07,-1.17929495499058e-07,-7.33817410300523e-07,-6.67146873104761e-07,-7.19305717274012e-07,1.67483382094307e-06,-2.20353238443176e-06,1.50529150908204e-06,-1.82643515628898e-06
4.37745595687518e-06,-9.60095263729417e-07,3.47819690174325e-06,-1.72134084397069e-07,3.01368146739161e-06,-1.0429031696622e-07,2.63294407324616e-06,-8.19381883565145e-07,1.79252620474873e-06,-1.81264896590015e-08,-4.52525555740662e-06,-2.92379035112508e-07,4.87091789391315e-07,-5.03532336592287e-07,1.68353548337596e-06,-4.42211504808343e-07,-3.47852817789882e-06,-1.81313714213876e-06,1.34601039955628e-06,-7.56154436891889e-07,-7.44227787841421e-07,-9.39855559994631e-07,3.56922556710224e-06,-3.86065882717734e-06,9.75239924204014e-07,-1.30018445925689e-06,1.07508702194031e-06,2.74090757811106e-06,6.92447270882585e-07,-8.40939578841044e-07,2.47281810702449e-06,-2.9122968104991e-06,8.73828038926355e-07,-7.38608609179734e-07,1.43197988205811e-06,-2.64926787951043e-07,1.29045969432279e-06,-7.59960463241117e-07,1.38909012059428e-06,5.74630719389018e-07,1.6320625235049e-08,9.05783419463728e-07,-7.19857886490289e-07,8.28593501220639e-07,-1.91155051536467e-06,3.74252596211062e-06,5.54554583895552e-07,-9.23695377211173e-07,5.5947716073104e-06,-5.26665431194461e-06,-4.66793449387089e-06,1.45459778623272e-06,9.66552123783322e-07,-1.45091221059823e-07,6.69747752862403e-07,1.73936010120543e-08,1.82890739933485e-06,-8.33342360931366e-07,1.27681294118399e-06,-6.24155823616798e-07,1.51583180720399e-06,2.96965333500129e-05,1.16472685597987e-06,-8.38022479690147e-07,-1.66949649773093e-07,-7.11882187967404e-07,-6.93676414554028e-07,-7.10261639182035e-07,1.55440842228415e-06,-2.17427319675574e-06,1.16709429825179e-06,-1.8032305535144e-06
4.22196771367786e-06,-9.90771434526243e-07,3.44087527910537e-06,-1.91656811157562e-07,2.97866715035739e-06,-1.36164882273056e-07,2.58272105929787e-06,-8.25782785155923e-07,1.76308610526363e-06,-2.37121354289047e-08,-4.68297751376437e-06,-2.00229475688552e-07,4.75996528152744e-07,-5.10136624030596e-07,1.67038035767605e-06,-4.45011463784156e-07,-3.39647860031149e-06,-1.74619007066179e-06,1.27432665479453e-06,-7.32421980103147e-07,-7.49492966350665e-07,-9.41114237211694e-07,3.53827897531824e-06,-3.84967784022211e-06,9.04640973572203e-07,-1.23901155488981e-06,1.189638468831e-06,2.70056005053245e-06,6.62452546848439e-07,-8.26487455329095e-07,2.45134062326042e-06,-2.85365155682072e-06,8.58689446958723e-07,-7.35456859985711e-07,1.4620638174807e-06,-2.72203688887717e-07,1.27621393987743e-06,-7.55768924306298e-07,1.35215391906529e-06,5.43558568570032e-07,-1.63775834339012e-08,9.00869318883738e-07,-7.08237269511408e-07,7.65659789853075e-07,-1.87278819672064e-06,3.60811853970302e-06,5.12551484609877e-07,-9.27099243653688e-07,5.48668250803833e-06,-5.21343678140957e-06,-4.72336516716002e-06,1.44890523130762e-06,9.21024835805433e-07,-1.35063184711949e-07,6.39549864151656e-07,2.04509802448375e-09,1.78411632356347e-06,-8.51222270266475e-07,1.22206653437589e-06,-6.42037451544426e-07,1.36894699502471e-06,2.97311508599714e-05,1.08122301743113e-06,-8.23480155825133e-07,-2.12728601924384e-07,-6.88092734908229e-07,-7.16608434966973e-07,-7.0005638426895e-07,1.43484217780828e-06,-2.14376710965807e-06,8.29738032631017e-07,-1.78132726255188e-06
4.06523789837163e-06,-1.02134185627011e-06,3.40039523687773e-06,-2.12681911814163e-07,2.94367011178849e-06,-1.69075795095867e-07,2.53143340160088e-06,-8.32129289787464e-07,1.73189038466145e-06,-3.03565817509019e-08,-4.82614595114545e-06,-1.11275916305894e-07,4.66592226425696e-07,-5.1657492153835e-07,1.65837782077644e-06,-4.4769482030241e-07,-3.31093627136187e-06,-1.67927159871653e-06,1.20264960013394e-06,-7.09485414856273e-07,-7.52520794509217e-07,-9.41107513704583e-07,3.50734415996866e-06,-3.8362716626014e-06,8.27396955852606e-07,-1.16721012205024e-06,1.30251603938214e-06,2.65863111889246e-06,6.32506965561607e-07,-8.11232683587097e-07,2.42822055637809e-06,-2.7904910545591e-06,8.43381658161075e-07,-7.31626927657119e-07,1.48962234913734e-06,-2.76364296334173e-07,1.26102236377702e-06,-7.51711908700619e-07,1.31833648660325e-06,5.10136820783017e-07,-4.88031079104159e-08,8.9511590650259e-07,-6.92715510720376e-07,7.02075203067136e-07,-1.83354154631688e-06,3.46876278189603e-06,4.71794427389098e-07,-9.29469538077158e-07,5.37626579866717e-06,-5.15329959792221e-06,-4.77622960725604e-06,1.44468923773043e-06,8.76397625948191e-07,-1.25489272578441e-07,6.08668530739493e-07,-1.35996019181383e-08,1.73933848801084e-06,-8.68733332539884e-07,1.16957352338897e-06,-6.59632406011449e-07,1.20147020764613e-06,2.97270845407461e-05,9.99467434797136e-07,-8.07579756242181e-07,-2.55217977002856e-07,-6.62511783930044e-07,-7.35941253799306e-07,-6.88712089902437e-07,1.31646598314923e-06,-2.11202793891874e-06,4.93812554961222e-07,-1.76073038116876e-06
3.90726519667728e-06,-1.05168384735143e-06,3.35690301813556e-06,-2.35118912888674e-07,2.9086054652773e-06,-2.02885285410796e-07,2.47912711268438e-06,-8.38410088639444e-07,1.69892851223817e-06,-3.80667043240414e-08,-4.95483858169855e-06,-2.55692186895201e-08,4.58838327485112e-07,-5.22858474560136e-07,1.64748705181234e-06,-4.50279845793105e-07,-3.22224638048777e-06,-1.61253360581864e-06,1.13114439436457e-06,-6.8745943788795e-07,-7.53343628433119e-07,-9.39826864981114e-07,3.47654796051427e-06,-3.82054714246576e-06,7.43452212301932e-07,-1.08475722124527e-06,1.41358424778047e-06,2.61531139462905e-06,6.02639996280629e-07,-7.95226250878257e-07,2.40339456462973e-06,-2.72278766137451e-06,8.28045597870344e-07,-7.27121601419033e-07,1.5147647511966e-06,-2.77297993945273e-07,1.24500259823273e-06,-7.47795207517397e-07,1.2878911500555e-06,4.74466539307502e-07,-8.07889955518762e-08,8.88544332086675e-07,-6.73330706963193e-07,6.37962942161695e-07,-1.79397735517673e-06,3.32502614110639e-06,4.32422340740396e-07,-9.30820403795358e-07,5.26352121218256e-06,-5.08622469704946e-06,-4.82659809923586e-06,1.44200059510382e-06,8.32622430160639e-07,-1.16380453249209e-07,5.77133052185401e-07,-2.94901760487394e-08,1.69437071355127e-06,-8.85771592162903e-07,1.11934689144942e-06,-6.76881066503714e-07,1.0129757737489e-06,2.96840247164983e-05,9.1954763397263e-07,-7.90371834254532e-07,-2.9438318814714e-07,-6.35207183041868e-07,-7.51688340148681e-07,-6.76253564893675e-07,1.19959693775679e-06,-2.07907209481161e-06,1.59909284889486e-07,-1.74143715032557e-06
3.7480405014479e-06,-1.08167094772939e-06,3.31054380775461e-06,-2.58870626662083e-07,2.87336540092749e-06,-2.37453211305214e-07,2.4258440433394e-06,-8.44611990751009e-07,1.66419349130954e-06,-4.68442515433116e-08,-5.06919623277065e-06,5.68503125521778e-08,4.52685048625643e-07,-5.28997775376021e-07,1.63766126759169e-06,-4.52784683290877e-07,-3.13076944214029e-06,-1.54612523468921e-06,1.0599657213455e-06,-6.66447355959509e-07,-7.52008481695736e-07,-9.37264196805415e-07,3.44600384635333e-06,-3.80261276321018e-06,6.52772928474833e-07,-9.91675444166604e-07,1.52270998437209e-06,2.57079030102004e-06,5.72876427281083e-07,-7.78523244802843e-07,2.37678894303695e-06,-2.65051692249771e-06,8.1281763597779e-07,-7.21945263124531e-07,1.53760295572823e-06,-2.74910961628544e-07,1.22826752619448e-06,-7.44023607649032e-07,1.26105198915882e-06,4.36657916403898e-07,-1.1217618025516e-07,8.811802076997e-07,-6.50133472856682e-07,5.73442113401267e-07,-1.75427024218816e-06,3.1774930544174e-06,3.94565665574504e-07,-9.31168129090449e-07,5.14844955940753e-06,-5.01221081224289e-06,-4.87454698929862e-06,1.44087611659891e-06,7.89641981154613e-07,-1.07744840301658e-07,5.44971050322206e-07,-4.55748853832395e-08,1.649003529328e-06,-9.02235525462799e-07,1.07138354450372e-06,-6.93724502041611e-07,8.03250074291911e-07,2.96015845000036e-05,8.41538766862686e-07,-7.7190952045878e-07,-3.30203252997701e-07,-6.06251230287874e-07,-7.63877838560869e-07,-6.62708057093502e-07,1.08453666419754e-06,-2.04491863714195e-06,-1.71380065904919e-07,-1.72343647837226e-06
3.58754813073542e-06,-1.11117335882648e-06,3.26146042702562e-06,-2.83833778857767e-07,2.83782021087337e-06,-2.72637909160888e-07,2.3716214658769e-06,-8.50719937996081e-07,1.62768147134433e-06,-5.66857265900047e-08,-5.16942166725157e-06,1.3595224711205e-07,4.48073287511831e-07,-5.3500245650211e-07,1.62884772794783e-06,-4.55227249895408e-07,-3.03688073515969e-06,-1.48019245728784e-06,9.89256881632563e-07,-6.46540316675921e-07,-7.48576895989962e-07,-9.33411778934907e-07,3.41581079608501e-06,-3.78257758609252e-06,5.55347684947541e-07,-8.88033027673805e-07,1.62976211817368e-06,2.52525371356424e-06,5.43235830499408e-07,-7.61182751961576e-07,2.34832071146838e-06,-2.57365874400473e-06,7.97828540762549e-07,-7.16103865422189e-07,1.55824948038188e-06,-2.69126644435864e-07,1.21092443151903e-06,-7.40401013419914e-07,1.23803224875944e-06,3.96829578207751e-07,-1.42814904084206e-07,8.73053525563263e-07,-6.23187518612898e-07,5.08628007306919e-07,-1.71460194907013e-06,3.02676149359571e-06,3.58345700759179e-07,-9.30531104666732e-07,5.03105346117285e-06,-4.9312736555335e-06,-4.92015789351399e-06,1.44133830487094e-06,7.47390162527783e-07,-9.95875921405747e-08,5.1220817812217e-07,-6.18007985841386e-08,1.60302234352674e-06,-9.18026433038874e-07,1.02566436161858e-06,-7.10104723220584e-07,5.72301869139027e-07,2.94792922279419e-05,7.65503727591662e-07,-7.52248140887824e-07,-3.62670551926895e-07,-5.75720007879828e-07,-7.72552036380054e-07,-6.48105029011634e-07,9.71569728235531e-07,-2.00958934419815e-06,-4.9946490634836e-07,-1.70670851274386e-06
